Time (s)	WE(1).Potential (V)	Corrected time (s)	Index	dWE(1).Potential/dt (V/s)	OCP value (V)
4.86381198772006	0.008056640625	0	1	0	0.00868296903722426
4.96381198746758	0.0080413818359375	0.0999999997475243	2	-0.000152588036144152	
5.0638119872151	0.008038330078125	0.199999999495049	3	3.05101566482335E-05	
5.16381198696263	0.008038330078125	0.299999999242573	4	-1.52488692037878E-05	
5.26381198671015	0.0080413818359375	0.399999998990097	5	4.57838614238426E-05	
5.36381198645768	0.008038330078125	0.499999998737621	6	-9.1564616013784E-05	
5.4638119862052	0.00804748535156249	0.599999998485146	7	0.000213648701901548	
5.56381198595273	0.00804748535156249	0.69999999823267	8	-0.000116986644570716	
5.66381198570025	0.0080596923828125	0.799999997980194	9	0.000254316488280892	
5.76381198544777	0.008056640625	0.899999997727718	10	-0.000198378111235797	
5.8638119851953	0.0080535888671875	0.999999997475243	11	2.03463132493198E-05	
5.96381198494282	0.0080413818359375	1.09999999722277	12	-0.000198350171558559	
6.06381198469035	0.00805053710937501	1.19999999697029	13	0.000300072424579412	
6.16381198443787	0.0080413818359375	1.29999999671782	14	-0.000315343029797077	
6.2638119841854	0.00804443359375	1.39999999646534	15	0.000193280662642792	
6.36381198393292	0.00806579589843751	1.49999999621286	16	0.000325497559970245	
6.46381198368044	0.00804748535156249	1.59999999596039	17	-0.000574725912883878	
6.56381198342797	0.00806274414062499	1.69999999570791	18	0.000564577581826597	
6.66381198317549	0.00805053710937501	1.79999999545544	19	-0.000462861557025462	
6.76381198292302	0.00806579589843751	1.89999999520296	20	0.000473019172204658	
6.86381198267054	0.0080596923828125	1.99999999495049	21	-0.000330601207679138	
6.96381198241806	0.0080535888671875	2.09999999469801	22	1.01514260677504E-05	
7.06381198216559	0.0080596923828125	2.19999999444553	23	0.000162789132446051	
7.16381198191311	0.008056640625	2.29999999419306	24	-0.000147524740896188	
7.26381198166064	0.0080718994140625	2.39999999394058	25	0.000335701741278172	
7.36381198140816	0.00806274414062499	2.49999999368811	26	-0.000356029428075999	
7.46381198115569	0.00806884765625	2.59999999343563	27	0.000269562267931178	
7.56381198090321	0.00806579589843751	2.69999999318316	28	-0.000157666858285666	
7.66381198065073	0.0080596923828125	2.79999999293068	29	-5.59477048227564E-05	
7.76381198039826	0.00806579589843751	2.8999999926782	30	0.000172906409716234	
7.86381198014578	0.00806884765625	2.99999999242573	31	-3.55951815436129E-05	
7.96381197989331	0.00806884765625	3.09999999217325	32	-1.52519742186996E-05	
8.06381197964083	0.00806274414062499	3.19999999192078	33	-0.000101706733403262	
8.16381197938836	0.00806884765625	3.2999999916683	34	0.00018308887956664	
8.26381197913588	0.00807800292968749	3.39999999141583	35	7.63219577493146E-05	
8.3638119788834	0.00806274414062499	3.49999999116335	36	-0.000366215012036264	
8.46381197863093	0.00806579589843751	3.59999999091087	37	0.000264474132563919	
8.56381197837845	0.00806274414062499	3.6999999906584	38	-0.000142399352625944	
8.66381197812598	0.0080596923828125	3.79999999040592	39	-1.0176260730077E-05	
8.7638119778735	0.00806274414062499	3.89999999015345	40	8.13790466054343E-05	
8.86381197762103	0.00806274414062499	3.99999998990097	41	-4.57652349723503E-05	
8.96381197736855	0.00808105468750001	4.0999999896485	42	0.000345853186445311	
9.06381197711607	0.00807800292968749	4.19999998939602	43	-0.00026955603971146	
9.1638119768636	0.00808105468750001	4.29999998914354	44	0.00015256940969266	
9.26381197661112	0.0080718994140625	4.39999998889107	45	-0.000213614563108422	
9.36381197635865	0.0080841064453125	4.49999998863859	46	0.000340771250193939	
9.46381197610617	0.00808105468750001	4.59999998838612	47	-0.000228875840548426	
9.5638119758537	0.008087158203125	4.69999998813364	48	0.000188189427717589	
9.66381197560122	0.00806579589843751	4.79999998788117	49	-0.000473034713650122	
9.76381197534874	0.00807800292968749	4.89999998762869	50	0.000493384141009301	
9.86381197509627	0.008074951171875	4.99999998737621	51	-0.000269574695266783	
9.96381197484379	0.00808105468750001	5.09999998712374	52	0.000188170801266097	
10.0638119745913	0.00809326171874999	5.19999998687126	53	0.000142436605528928	
10.1638119743388	0.0080902099609375	5.29999998661879	54	-0.000178022484760731	
10.2638119740864	0.0080718994140625	5.39999998636631	55	-0.00025941085186787	
10.3638119738339	0.008074951171875	5.49999998611383	56	0.00025941085186787	
10.4638119735814	0.008087158203125	5.59999998586136	57	0.000127141174743883	
10.5638119733289	0.00809631347656251	5.69999998560888	58	3.56013915734366E-05	
10.6638119730765	0.008087158203125	5.79999998535641	59	-0.000233963975915685	
10.763811972824	0.008099365234375	5.89999998510393	60	0.000361117563443258	
10.8638119725715	0.00809326171874999	5.99999998485146	61	-0.000284804933471605	
10.963811972319	0.0080841064453125	6.09999998459898	62	-5.59663312742487E-05	
11.0638119720666	0.0080902099609375	6.1999999843465	63	0.000198387424461544	
11.1638119718141	0.00809326171874999	6.29999998409403	64	-4.57900714536663E-05	
11.2638119715616	0.00808105468750001	6.39999998384155	65	-0.000239061424508691	
11.3638119713091	0.0080902099609375	6.49999998358908	66	0.00032044667750597	
11.4638119710567	0.008087158203125	6.5999999833366	67	-0.000203469346161	
11.5638119708042	0.00807800292968749	6.69999998308413	68	-0.000101706733403262	
11.6638119705517	0.0080902099609375	6.79999998283165	69	0.000320434250170365	
11.7638119702992	0.0080902099609375	6.89999998257917	70	-0.000172940563061275	
11.8638119700468	0.00809326171874999	6.9999999823267	71	9.66403313213959E-05	
11.9638119697943	0.00809326171874999	7.09999998207422	72	-3.55920783476904E-05	
12.0638119695418	0.008099365234375	7.19999998182175	73	0.000122062359878328	
12.1638119692893	0.0080902099609375	7.29999998156927	74	-0.000239033484831452	
12.2638119690369	0.00809631347656251	7.3999999813168	75	0.000239021057495847	
12.3638119687844	0.00809326171874999	7.49999998106432	76	-0.000157651331392117	
12.4638119685319	0.008099365234375	7.59999998081184	77	0.000167833801242523	
12.5638119682794	0.00809631347656251	7.69999998055937	78	-0.000137320545036346	
12.6638119680269	0.00810546875	7.79999998030689	79	0.000223797032958828	
12.7638119677745	0.008099365234375	7.89999998005442	80	-0.000228903780225664	
12.863811967522	0.0081024169921875	7.99999997980194	81	0.000157697897520848	
12.9638119672695	0.008099365234375	8.09999997954947	82	-0.000111910929263104	
13.063811967017	0.00810852050781249	8.19999997929699	83	0.000213648701901548	
13.1638119667646	0.00810546875	8.29999997904451	84	-0.000172940563061275	
13.2638119665121	0.0081024169921875	8.39999997879204	85	1.01607392934966E-05	
13.3638119662596	0.00810852050781249	8.49999997853956	86	0.000137345370603725	
13.4638119660071	0.00811157226562501	8.59999997828709	87	-2.5446861400269E-05	
13.5638119657547	0.00810546875	8.69999997803461	88	-0.000127144274301827	
13.6638119655022	0.00811157226562501	8.79999997778214	89	0.00019324962340761	
13.7638119652497	0.00809631347656251	8.89999997752966	90	-0.000371293834177777	
13.8638119649972	0.0081024169921875	8.99999997727718	91	0.000310264207655564	
13.9638119647448	0.00811157226562501	9.09999997702471	92	4.57652349723503E-05	
14.0638119644923	0.00810852050781249	9.19999997677223	93	-0.000142399352625944	
14.1638119642398	0.0081146240234375	9.29999997651976	94	0.000178006957867183	
14.2638119639873	0.00810852050781249	9.39999997626728	95	-0.00019324962340761	
14.3638119637349	0.0081146240234375	9.49999997601481	96	0.000203432093258016	
14.4638119634824	0.0081207275390625	9.59999997576233	97	2.0368044715724E-05	
14.5638119632299	0.00811767578125	9.69999997550985	98	-0.000106835221231449	
14.6638119629774	0.0081024169921875	9.79999997525738	99	-0.000223787719733082	
14.763811962725	0.00810546875	9.8999999750049	100	0.000223800132516772	
14.8638119624725	0.00811767578125	9.99999997475243	101	0.000137314331368543	
14.96381196222	0.0081146240234375	10.0999999745	102	-0.000188189427717589	
15.0638119619675	0.00811767578125	10.1999999742475	103	0.000132257249788381	
15.1638119617151	0.00812377929687499	10.299999973995	104	6.61239682813175E-05	
15.2638119614626	0.0081207275390625	10.3999999737425	105	-0.000116983537736814	
15.3638119612101	0.00812683105468751	10.49999997349	106	0.000167824488016777	
15.4638119609576	0.0081298828125	10.5999999732376	107	-2.54251299338648E-05	
15.5638119607052	0.0081146240234375	10.6999999729851	108	-0.000294996716547757	
15.6638119604527	0.00812377929687499	10.7999999727326	109	0.000356057367753237	
15.7638119602002	0.00812683105468751	10.8999999724801	110	-0.00010174708586419	
15.8638119599477	0.00812683105468751	10.9999999722277	111	-5.08813036503852E-06	
15.9638119596952	0.0081298828125	11.0999999719752	112	6.6117754613515E-05	
16.0638119594428	0.008135986328125	11.1999999717227	113	7.63126445235685E-05	
16.1638119591903	0.0081207275390625	11.2999999714702	114	-0.000340796104865149	
16.2638119589378	0.0081207275390625	11.3999999712178	115	0.000198362584342249	
16.3638119586853	0.00813903808593749	11.4999999709653	116	0.000284832873148844	
16.4638119584329	0.00812683105468751	11.5999999707128	117	-0.000437427108408883	
16.5638119581804	0.0081298828125	11.6999999704603	118	0.000259401538642123	
16.6638119579279	0.00814208984375001	11.7999999702079	119	0.000147503014886752	
16.7638119576754	0.0081207275390625	11.8999999699554	120	-0.000523881870321929	
16.863811957423	0.00813903808593749	11.9999999697029	121	0.000625604123342782	
16.9638119571705	0.00812377929687499	12.0999999694504	122	-0.000564562098588794	
17.063811956918	0.0081298828125	12.199999969198	123	0.000350944406818599	
17.1638119566655	0.00812377929687499	12.2999999689455	124	-0.000233942249906249	
17.2638119564131	0.0081298828125	12.399999968693	125	0.000203432093258016	
17.3638119561606	0.0081207275390625	12.4999999684405	126	-0.000259376683970913	
17.4638119559081	0.0081451416015625	12.5999999681881	127	0.00057471968466416	
17.5638119556556	0.0081451416015625	12.6999999679356	128	-0.000315330602461472	
17.6638119554032	0.00813903808593749	12.7999999676831	129	-3.05008434224874E-05	
17.7638119551507	0.008135986328125	12.8999999674306	130	1.52519742186996E-05	
17.8638119548982	0.0081298828125	12.9999999671782	131	-9.6655850938987E-05	
17.9638119546457	0.0081329345703125	13.0999999669257	132	0.000117005271022208	
18.0638119543933	0.00814208984375001	13.1999999666732	133	0.000111879890027922	
18.1638119541408	0.00814208984375001	13.2999999664207	134	-9.66434381552972E-05	
18.2638119538883	0.00813903808593749	13.3999999661683	135	-2.54189217230305E-05	
18.3638119536358	0.00813903808593749	13.4999999659158	136	3.56076016032603E-05	
18.4638119533834	0.00813903808593749	13.5999999656633	137	-1.01638433989137E-05	
18.5638119531309	0.00813903808593749	13.6999999654108	138	6.20882323332239E-09	
18.6638119528784	0.00814208984375001	13.7999999651583	139	5.59352884010877E-05	
18.7638119526259	0.008148193359375	13.8999999649059	140	7.6300224463921E-05	
18.8638119523735	0.00815429687499999	13.9999999646534	141	5.08688863192219E-05	
18.963811952121	0.00812683105468751	14.0999999644009	142	-0.000554416852537543	
19.0638119518685	0.0081329345703125	14.1999999641484	143	0.000452685286290944	
19.163811951616	0.0081451416015625	14.299999963896	144	6.10265233262908E-05	
19.2638119513636	0.0081451416015625	14.3999999636435	145	-0.000122059253044426	
19.3638119511111	0.00813903808593749	14.499999963391	146	-7.11903630872257E-05	
19.4638119508586	0.00815429687499999	14.5999999631385	147	0.000350950605934486	
19.5638119506061	0.008135986328125	14.6999999628861	148	-0.000534054997842759	
19.6638119503536	0.00815429687499999	14.7999999626336	149	0.00060017587384209	
19.7638119501012	0.008148193359375	14.8999999623811	150	-0.000386555126169696	
19.8638119498487	0.00815734863281251	14.9999999621286	151	0.000300081737805158	
19.9638119495962	0.0081512451171875	15.0999999618762	152	-0.000239045897615142	
20.0638119493437	0.00815429687499999	15.1999999616237	153	0.000157666858285666	
20.1638119490913	0.00815734863281251	15.2999999613712	154	-6.20882323332239E-09	
20.2638119488388	0.00813903808593749	15.3999999611187	155	-0.000361108250217512	
20.3638119485863	0.008148193359375	15.4999999608663	156	0.000391633919207379	
20.4638119483338	0.00814208984375001	15.5999999606138	157	-0.000279750936897472	
20.5638119480814	0.0081451416015625	15.6999999603613	158	0.000157673057401553	
20.6638119478289	0.0081512451171875	15.7999999601088	159	5.59663312742487E-05	
20.7638119475764	0.008148193359375	15.8999999598564	160	-0.000117005271022208	
20.8638119473239	0.008160400390625	15.9999999596039	161	0.000279747851891443	
20.9638119470715	0.008148193359375	16.0999999593514	162	-0.000376369542209432	
21.063811946819	0.008160400390625	16.1999999590989	163	0.000406889012083411	
21.1638119465665	0.00816650390625	16.2999999588465	164	-7.11872635292821E-05	
21.263811946314	0.0081634521484375	16.399999958594	165	-8.64889079821296E-05	
21.3638119460616	0.008160400390625	16.4999999583415	166	3.1044116166612E-09	
21.4638119458091	0.008160400390625	16.599999958089	167	2.54406531894347E-05	
21.5638119455566	0.00815734863281251	16.6999999578366	168	-6.61239682813175E-05	
21.6638119453041	0.00815429687499999	16.7999999575841	169	-2.03370000235736E-05	
21.7638119450517	0.00816650390625	16.8999999573316	170	0.000249225267907605	
21.8638119447992	0.00815734863281251	16.9999999570791	171	-0.000320455990731716	
21.9638119445467	0.00814208984375001	17.0999999568267	172	-0.000132241722894832	
22.0638119442942	0.008160400390625	17.1999999565742	173	0.000483192328829318	
22.1638119440418	0.00815734863281251	17.2999999563217	174	-0.000320431136060506	
22.2638119437893	0.00815734863281251	17.3999999560692	175	9.66279112617485E-05	
22.3638119435368	0.00817260742187501	17.4999999558167	176	0.000269565352937207	
22.4638119432843	0.00815429687499999	17.5999999555643	177	-0.000513699371367693	
22.5638119430319	0.00815734863281251	17.6999999553118	178	0.000320418737828732	
22.6638119427794	0.0081634521484375	17.7999999550593	179	1.52674965647748E-05	
22.7638119425269	0.00815734863281251	17.8999999548068	180	-0.000172946762177162	
22.8638119422744	0.00815734863281251	17.9999999545544	181	9.15490963961929E-05	
22.9638119420219	0.008160400390625	18.0999999543019	182	3.56013915734366E-05	
23.0638119417695	0.00816955566406249	18.1999999540494	183	0.000132266563014127	
23.163811941517	0.00817260742187501	18.2999999537969	184	-4.07112529501319E-05	
23.2638119412645	0.008160400390625	18.3999999535445	185	-0.000228878954658285	
23.363811941012	0.00817260742187501	18.499999953292	186	0.000376385054551065	
23.4638119407596	0.00817260742187501	18.5999999530395	187	-0.000183116819243878	
23.5638119405071	0.0081817626953125	18.699999952787	188	0.000208545054192655	
23.6638119402546	0.00816955566406249	18.7999999525346	189	-0.000330613635014743	
23.7638119400021	0.00817260742187501	18.8999999522821	190	0.000228875840548426	
23.8638119397497	0.00816650390625	18.9999999520296	191	-0.000188180114491843	
23.9638119394972	0.0081756591796875	19.0999999517771	192	0.000249203527346253	
24.0638119392447	0.0081634521484375	19.1999999515247	193	-0.000350928894476965	
24.1638119389922	0.0081817626953125	19.2999999512722	194	0.000508623663336039	
24.2638119387398	0.00818786621093751	19.3999999510197	195	-0.000142439719638787	
24.3638119384873	0.0081756591796875	19.4999999507672	196	-0.000233960876357742	
24.4638119382348	0.0081787109375	19.5999999505148	197	0.000218721310375258	
24.5638119379823	0.0081756591796875	19.6999999502623	198	-0.000132254135678522	
24.6638119377299	0.00816650390625	19.7999999500098	199	-0.00012204993981868	
24.7638119374774	0.0081817626953125	19.8999999497573	200	0.000376366428099573	
24.8638119372249	0.0081817626953125	19.9999999495049	201	-0.000208538840524852	
24.9638119369724	0.00819091796875	20.0999999492524	202	0.000218696484807879	
25.06381193672	0.0081787109375	20.1999999489999	203	-0.000330585666233674	
25.1638119364675	0.0081756591796875	20.2999999487474	204	0.000116971124953125	
25.263811936215	0.00818786621093751	20.399999948495	205	0.000218715111259371	
25.3638119359625	0.0081939697265625	20.4999999482425	206	-4.06926264986396E-05	
25.4638119357101	0.0081787109375	20.59999994799	207	-0.000310264207655564	
25.5638119354576	0.0081817626953125	20.6999999477375	208	0.000254319602390751	
25.6638119352051	0.0081787109375	20.799999947485	209	-0.000142430406413041	
25.7638119349526	0.0081787109375	20.8999999472326	210	4.57838614238426E-05	
25.8638119347002	0.00818481445312499	20.9999999469801	211	0.0001017346730805	
25.9638119344477	0.0081939697265625	21.0999999467276	212	9.6634124929551E-05	
26.0638119341952	0.00819091796875	21.1999999464751	213	-0.000142417979077436	
26.1638119339427	0.0081939697265625	21.2999999462227	214	0.000122084093163721	
26.2638119336902	0.0081939697265625	21.3999999459702	215	-4.57838614238426E-05	
26.3638119334378	0.00818786621093751	21.4999999457177	216	-0.0001017346730805	
26.4638119331853	0.0081939697265625	21.5999999454652	217	0.000183110605576076	
26.5638119329328	0.008197021484375	21.6999999452128	218	-3.56013915734366E-05	
26.6638119326803	0.0081939697265625	21.7999999449603	219	-7.12214095983654E-05	
26.7638119324279	0.00818786621093751	21.8999999447078	220	-6.61239682813175E-05	
26.8638119321754	0.00819091796875	21.9999999444553	221	0.000116983537736814	
26.9638119319229	0.00819091796875	22.0999999442029	222	-5.59414947929326E-05	
27.0638119316704	0.00819091796875	22.1999999439504	223	1.0176260730077E-05	
27.163811931418	0.0081939697265625	22.2999999436979	224	5.59570180485025E-05	
27.2638119311655	0.00820312500000001	22.3999999434454	225	0.000132226196001284	
27.363811930913	0.00820312500000001	22.499999943193	226	-9.66434381552972E-05	
27.4638119306605	0.00818786621093751	22.5999999429405	227	-0.000249234581133351	
27.5638119304081	0.00818786621093751	22.699999942688	228	0.000178013171534985	
27.6638119301556	0.0082061767578125	22.7999999424355	229	0.000284829759038985	
27.7638119299031	0.008197021484375	22.8999999421831	230	-0.000381451449356973	
27.8638119296506	0.0081939697265625	22.9999999419306	231	0.00011187678319402	
27.9638119293982	0.00820007324218749	23.0999999416781	232	0.000117002164188307	
28.0638119291457	0.008197021484375	23.1999999414256	233	-0.000137329858262092	
28.1638119288932	0.0082061767578125	23.2999999411732	234	0.000223778406507336	
28.2638119286407	0.00820007324218749	23.3999999409207	235	-0.000228851014981046	
28.3638119283883	0.00820007324218749	23.4999999406682	236	0.000101722253020853	
28.4638119281358	0.00820007324218749	23.5999999404157	237	-2.03370000235736E-05	
28.5638119278833	0.0082061767578125	23.6999999401633	238	0.000111889203253668	
28.6638119276308	0.00820007324218749	23.7999999399108	239	-0.000183079566340894	
28.7638119273784	0.00821533203124999	23.8999999396583	240	0.000371293834177777	
28.8638119271259	0.0082061767578125	23.9999999394058	241	-0.000366218126146123	
28.9638119268734	0.00820007324218749	24.0999999391533	242	4.58024878753349E-05	
29.0638119266209	0.0082061767578125	24.1999999389009	243	0.00015256940969266	
29.1638119263685	0.0082122802734375	24.2999999386484	244	2.0368044715724E-05	
29.263811926116	0.00821838378906251	24.3999999383959	245	6.10016868449748E-05	
29.3638119258635	0.008221435546875	24.4999999381434	246	5.09433948536753E-06	
29.463811925611	0.00820312500000001	24.599999937891	247	-0.000350950605934486	
29.5638119253586	0.008209228515625	24.6999999376385	248	0.000335692428052425	
29.6638119251061	0.008197021484375	24.799999937386	249	-0.000356035656295717	
29.7638119248536	0.0082061767578125	24.8999999371335	250	0.000330588780343533	
29.8638119246011	0.00821533203124999	24.9999999368811	251	2.03773579414701E-05	
29.9638119243486	0.00821838378906251	25.0999999366286	252	-2.0368044715724E-05	
30.0638119240962	0.00821533203124999	25.1999999363761	253	-6.10172101005446E-05	
30.1638119238437	0.0082122802734375	25.2999999361236	254	-1.0176260730077E-05	
30.2638119235912	0.008209228515625	25.3999999358712	255	-3.05287830997258E-05	
30.3638119233387	0.00821533203124999	25.4999999356187	256	0.000137345370603725	
30.4638119230863	0.00821838378906251	25.5999999353662	257	-2.5446861400269E-05	
30.5638119228338	0.00821838378906251	25.6999999351137	258	-1.52612865349511E-05	
30.6638119225813	0.008221435546875	25.7999999348613	259	6.6117754613515E-05	
30.7638119223288	0.00820312500000001	25.8999999346088	260	-0.000371293834177777	
30.8638119220764	0.0082061767578125	25.9999999343563	261	0.000279738509561867	
30.9638119218239	0.0082244873046875	26.0999999341038	262	0.000239067623624578	
31.0638119215714	0.0082122802734375	26.1999999338514	263	-0.000427247752668336	
31.1638119213189	0.00821838378906251	26.2999999335989	264	0.000315324403345585	
31.2638119210665	0.008221435546875	26.3999999333464	265	-5.59414947929326E-05	
31.363811920814	0.0082244873046875	26.4999999330939	266	4.07019397243857E-05	
31.4638119205615	0.00821533203124999	26.5999999328415	267	-0.000193274448974989	
31.563811920309	0.0082244873046875	26.699999932589	268	0.000284826644929126	
31.6638119200566	0.0082244873046875	26.7999999323365	269	-0.000137326744152233	
31.7638119198041	0.008221435546875	26.899999932084	270	-2.54375481745228E-05	
31.8638119195516	0.00821533203124999	26.9999999318316	271	-7.62691852287389E-05	
31.9638119192991	0.0082244873046875	27.0999999315791	272	0.000228869641432539	
32.0638119190467	0.00821533203124999	27.1999999313266	273	-0.00029499048832804	
32.1638119187942	0.00823364257812501	27.2999999310741	274	0.000473006773972884	
32.2638119185417	0.00821838378906251	27.3999999308217	275	-0.000523888098541647	
32.3638119182892	0.008221435546875	27.4999999305692	276	0.000294999801553786	
32.4638119180368	0.00821838378906251	27.5999999303167	277	-0.000142411779961549	
32.5638119177843	0.0082275390625	27.6999999300642	278	0.000213626975892112	
32.6638119175318	0.0082244873046875	27.7999999298117	279	-0.000172949876287021	
32.7638119172793	0.0082244873046875	27.8999999295593	280	6.61301746731624E-05	
32.8638119170269	0.0082122802734375	27.9999999293068	281	-0.000233963975915685	
32.9638119167744	0.00823059082031249	28.0999999290543	282	0.000478104222565889	
33.0638119165219	0.008221435546875	28.1999999288018	283	-0.000422162731410936	
33.1638119162694	0.00823059082031249	28.2999999285494	284	0.000335720367729664	
33.2638119160169	0.0082244873046875	28.3999999282969	285	-0.000249240780249238	
33.3638119157645	0.0082275390625	28.4999999280444	286	0.000157682370627299	
33.463811915512	0.00823364257812501	28.5999999277919	287	5.59228683414403E-05	
33.5638119152595	0.00823364257812501	28.6999999275395	288	-6.10327297181357E-05	
33.663811915007	0.00823974609375	28.799999927287	289	0.000132244822452776	
33.7638119147546	0.0082366943359375	28.8999999270345	290	-0.000127162900753319	
33.8638119145021	0.0082366943359375	28.999999926782	291	5.5960121244425E-05	
33.9638119142496	0.00824890136718751	29.0999999265296	292	0.000213620762224309	
34.0638119139971	0.00824584960937499	29.1999999262771	293	-0.000198356370674446	
34.1638119137447	0.0082275390625	29.2999999260246	294	-0.000259401538642123	
34.2638119134922	0.00823059082031249	29.3999999257721	295	0.000259398424532264	
34.3638119132397	0.00823059082031249	29.4999999255197	296	-9.66279112617485E-05	
34.4638119129872	0.00823364257812501	29.5999999252672	297	6.61084413877688E-05	
34.5638119127348	0.00823974609375	29.6999999250147	298	7.6300224463921E-05	
34.6638119124823	0.00823974609375	29.7999999247622	299	-6.10389397479594E-05	
34.7638119122298	0.00823974609375	29.8999999245098	300	2.03463132493198E-05	
34.8638119119773	0.00824890136718751	29.9999999242573	301	0.000167836900800467	
34.9638119117249	0.00824584960937499	30.0999999240048	302	-0.000162745665875264	
35.0638119114724	0.00823364257812501	30.1999999237523	303	-0.000157691683853045	
35.1638119112199	0.00824890136718751	30.2999999234999	304	0.000411986460676417	
35.2638119109674	0.0082550048828125	30.3999999232474	305	-0.000106810381112155	
35.363811910715	0.0082427978515625	30.4999999229949	306	-0.000244137132540345	
35.4638119104625	0.00824584960937499	30.5999999227424	307	0.000218705798033625	
35.56381191021	0.00824584960937499	30.69999992249	308	-7.62815980124287E-05	
35.6638119099575	0.0082427978515625	30.7999999222375	309	-4.57745481980965E-05	
35.7638119097051	0.00824584960937499	30.899999921985	310	9.15490963961929E-05	
35.8638119094526	0.00824890136718751	30.9999999217325	311	1.01638433989137E-05	
35.9638119092001	0.00824890136718751	31.09999992148	312	-2.5434443159611E-05	
36.0638119089476	0.008251953125	31.1999999212276	313	6.6117754613515E-05	
36.1638119086952	0.008258056640625	31.2999999209751	314	7.63126445235685E-05	
36.2638119084427	0.0082427978515625	31.3999999207226	315	-0.000340796104865149	
36.3638119081902	0.0082366943359375	31.4999999204701	316	8.64547546370886E-05	
36.4638119079377	0.008251953125	31.5999999202177	317	0.000300106563372537	
36.5638119076852	0.0082550048828125	31.6999999199652	318	-0.00014240866585169	
36.6638119074328	0.0082427978515625	31.7999999197127	319	-0.000208538840524852	
36.7638119071803	0.008258056640625	31.8999999194602	320	0.00043232346069999	
36.8638119069278	0.0082550048828125	31.9999999192078	321	-0.000274665915640071	
36.9638119066753	0.008258056640625	32.0999999189553	322	0.000142427292303182	
37.0638119064229	0.00826110839843749	32.1999999187028	323	1.01669475043309E-05	
37.1638119061704	0.0082427978515625	32.2999999184503	324	-0.000361117563443258	
37.2638119059179	0.008258056640625	32.3999999181979	325	0.000503532472066581	
37.3638119056654	0.008251953125	32.4999999179454	326	-0.00035096614737995	
37.463811905413	0.00824584960937499	32.5999999176929	327	1.02042004073155E-05	
37.5638119051605	0.0082550048828125	32.6999999174404	328	0.000218696484807879	
37.663811904908	0.0082427978515625	32.799999917188	329	-0.000350944406818599	
37.7638119046555	0.0082733154296875	32.8999999169355	330	0.000732411397621036	
37.8638119044031	0.0082550048828125	32.999999916683	331	-0.000732430024072528	
37.9638119041506	0.00826416015625001	33.0999999164305	332	0.000483192328829318	
38.0638119038981	0.00826110839843749	33.1999999161781	333	-0.000223781506065279	
38.1638119036456	0.00826416015625001	33.2999999159256	334	0.000122053046652582	
38.2638119033932	0.00826416015625001	33.3999999156731	335	-4.57776513940189E-05	
38.3638119031407	0.00826416015625001	33.4999999154206	336	1.01638433989137E-05	
38.4638119028882	0.0082672119140625	33.5999999151682	337	5.59477048227564E-05	
38.5638119026357	0.0082550048828125	33.6999999149157	338	-0.000259385997196659	
38.6638119023833	0.00826110839843749	33.7999999146632	339	0.000264489644905552	
38.7638119021308	0.008270263671875	33.8999999144107	340	5.59446016268339E-05	
38.8638119018783	0.0082550048828125	33.9999999141583	341	-0.000366208812920377	
38.9638119016258	0.0082672119140625	34.0999999139058	342	0.000432326545706019	
39.0638119013734	0.008270263671875	34.1999999136533	343	-0.000137314331368543	
39.1638119011209	0.0082550048828125	34.2999999134008	344	-0.000274665915640071	
39.2638119008684	0.00826416015625001	34.3999999131483	345	0.000356029428075999	
39.3638119006159	0.008270263671875	34.4999999128959	346	-4.5771445002174E-05	
39.4638119003635	0.008270263671875	34.5999999126434	347	-4.06926264986396E-05	
39.563811900111	0.00826110839843749	34.6999999123909	348	-0.000147490587551147	
39.6638118998585	0.0082672119140625	34.7999999121384	349	0.000218699584365822	
39.763811899606	0.00826110839843749	34.899999911886	350	-0.00021359593665693	
39.8638118993536	0.0082733154296875	34.9999999116335	351	0.000315339915687218	
39.9638118991011	0.00826416015625001	35.099999911381	352	-0.000330629147356376	
40.0638118988486	0.0082672119140625	35.1999999111285	353	0.000203456918825395	
40.1638118985961	0.008258056640625	35.2999999108761	354	-0.000233951563131996	
40.2638118983436	0.0082733154296875	35.3999999106236	355	0.000396712741348892	
40.3638118980912	0.00829162597656249	35.4999999103711	356	0.000127159801195376	
40.4638118978387	0.008270263671875	35.5999999101186	357	-0.000554401311092079	
40.5638118975862	0.0082733154296875	35.6999999098662	358	0.000366218126146123	
40.6638118973337	0.0082672119140625	35.7999999096137	359	-0.000218730623601004	
40.7638118970813	0.00827941894531251	35.8999999093612	360	0.00030518849962391	
40.8638118968288	0.008270263671875	35.9999999091087	361	-0.000330610520904884	
40.9638118965763	0.00827941894531251	36.0999999088563	362	0.000315336801577359	
41.0638118963238	0.00827941894531251	36.1999999086038	363	-0.000137332957820036	
41.1638118960714	0.00827636718749999	36.2999999083513	364	-2.54189217230305E-05	
41.2638118958189	0.00826416015625001	36.3999999080988	365	-0.000188208054169081	
41.3638118955664	0.00827941894531251	36.4999999078464	366	0.000411986460676417	
41.4638118953139	0.00827636718749999	36.5999999075939	367	-0.000274647289188579	
41.5638118950615	0.00826416015625001	36.6999999073414	368	-0.000137345370603725	
41.663811894809	0.0082855224609375	36.7999999070889	369	0.000523894268553704	
41.7638118945565	0.00826416015625001	36.8999999068365	370	-0.000681573583278805	
41.863811894304	0.00827941894531251	36.999999906584	371	0.00060017587384209	
41.9638118940516	0.00827941894531251	37.0999999063315	372	-0.000249234581133351	
42.0638118937991	0.0082977294921875	37.199999906079	373	0.000386555126169696	
42.1638118935466	0.008282470703125	37.2999999058266	374	-0.000493359286338091	
42.2638118932941	0.0082733154296875	37.3999999055741	375	7.12214095983654E-05	
42.3638118930417	0.00829467773437501	37.4999999053216	376	0.0004475598980207	
42.4638118927892	0.00827941894531251	37.5999999050691	377	-0.000559486332349479	
42.5638118925367	0.00827941894531251	37.6999999048167	378	0.000249219039687887	
42.6638118922842	0.0082672119140625	37.7999999045642	379	-0.000274659716524184	
42.7638118920318	0.0082855224609375	37.8999999043117	380	0.000478122849017382	
42.8638118917793	0.00828857421875	37.9999999040592	381	-0.000198365683900192	
42.9638118915268	0.00827941894531251	38.0999999038067	382	-0.000142439719638787	
43.0638118912743	0.0082977294921875	38.1999999035543	383	0.000452685286290944	
43.1638118910219	0.0082733154296875	38.2999999033018	384	-0.000691715686116368	
43.2638118907694	0.0082977294921875	38.3999999030493	385	0.000793431710917503	
43.3638118905169	0.0083038330078125	38.4999999027968	386	-0.000254285463597625	
43.4638118902644	0.00830078125	38.5999999025444	387	-4.57993846794125E-05	
43.5638118900119	0.0082855224609375	38.6999999022919	388	-0.000223787719733082	
43.6638118897595	0.0082977294921875	38.7999999020394	389	0.000391637033317238	
43.763811889507	0.00829467773437501	38.8999999017869	390	-0.000249222153797746	
43.8638118892545	0.00827941894531251	38.9999999015345	391	-0.000203463132493198	
43.963811889002	0.00829162597656249	39.099999901282	392	0.00039165565976873	
44.0638118887496	0.00829467773437501	39.1999999010295	393	-0.000137345370603725	
44.1638118884971	0.0082855224609375	39.299999900777	394	-0.000162751879543066	
44.2638118882446	0.00828857421875	39.3999999005246	395	0.000172934349393472	
44.3638118879921	0.0082855224609375	39.4999999002721	396	-0.000122084093163721	
44.4638118877397	0.00828857421875	39.5999999000196	397	0.000101737772638444	
44.5638118874872	0.0082977294921875	39.6999998997671	398	0.00012204993981868	
44.6638118872347	0.00830688476562499	39.7999998995147	399	7.12400360498577E-05	
44.7638118869822	0.00829467773437501	39.8999998992622	400	-0.000300112791592255	
44.8638118867298	0.0083038330078125	39.9999998990097	401	0.00034079299075529	
44.9638118864773	0.00828857421875	40.0999998987572	402	-0.000427260150900111	
45.0638118862248	0.00829162597656249	40.1999998985048	403	0.000264489644905552	
45.1638118859723	0.00830993652343751	40.2999998982523	404	0.000249219039687887	
45.2638118857199	0.00831298828125	40.3999998979998	405	-0.000147499900776893	
45.3638118854674	0.00829467773437501	40.4999998977473	406	-0.000310261093545705	
45.4638118852149	0.00830688476562499	40.5999998974949	407	0.000447600265033543	
45.5638118849624	0.00830993652343751	40.6999998972424	408	-0.000147518527228385	
45.66381188471	0.00830078125	40.7999998969899	409	-0.000162751879543066	
45.7638118844575	0.00830993652343751	40.8999998967374	410	0.00028481733170338	
45.863811884205	0.00829467773437501	40.999999896485	411	-0.000417077681049705	
45.9638118839525	0.0083038330078125	41.0999998962325	412	0.000376391282770783	
46.0638118837001	0.0083160400390625	41.19999989598	413	6.61053418298252E-05	
46.1638118834476	0.0082977294921875	41.2999998957275	414	-0.000447587837697938	
46.2638118831951	0.00830993652343751	41.399999895475	415	0.000478113535791636	
46.3638118829426	0.00830688476562499	41.4999998952226	416	-0.000259392196312547	
46.4638118826902	0.00830993652343751	41.5999998949701	417	0.000132226196001284	
46.5638118824377	0.00830993652343751	41.6999998947176	418	-4.57776513940189E-05	
46.6638118821852	0.00830993652343751	41.7999998944651	419	1.01638433989137E-05	
46.7638118819327	0.00830078125	41.8999998942127	420	-0.000167843114468269	
46.8638118816802	0.00830993652343751	41.9999998939602	421	0.000274647289188579	
46.9638118814278	0.00830993652343751	42.0999998937077	422	-0.000137332957820036	
47.0638118811753	0.0083160400390625	42.1999998934552	423	0.000142417979077436	
47.1638118809228	0.00832214355468749	42.2999998932028	424	4.06988365284633E-05	
47.2638118806703	0.0083038330078125	42.3999998929503	425	-0.000386555126169696	
47.3638118804179	0.0083038330078125	42.4999998926978	426	0.000233960876357742	
47.4638118801654	0.00832214355468749	42.5999998924453	427	0.000274659716524184	
47.5638118799129	0.00830688476562499	42.6999998921929	428	-0.000493356201332062	
47.6638118796604	0.00830993652343751	42.7999998919404	429	0.00029499048832804	
47.763811879408	0.00831298828125	42.8999998916879	430	-3.05163648590678E-05	
47.8638118791555	0.0083160400390625	42.9999998914354	431	3.05287830997258E-05	
47.963811878903	0.00830688476562499	43.099999891183	432	-0.000193274448974989	
48.0638118786505	0.00830688476562499	43.1999998909305	433	0.000116989751404617	
48.1638118783981	0.0083160400390625	43.299999890678	434	0.000137326744152233	
48.2638118781456	0.00831298828125	43.3999998904255	435	-0.000162764292326756	
48.3638118778931	0.008331298828125	43.4999998901731	436	0.00040182881639339	
48.4638118776406	0.00830688476562499	43.5999998899206	437	-0.000671384856104851	
48.5638118773882	0.00832214355468749	43.6999998896681	438	0.000625616521574557	
48.6638118771357	0.0083160400390625	43.7999998894156	439	-0.000371300033293664	
48.7638118768832	0.0083282470703125	43.8999998891632	440	0.000345862499671057	
48.8638118766307	0.0083282470703125	43.9999998889107	441	-0.000162751879543066	
48.9638118763783	0.008319091796875	44.0999998886582	442	-0.000127144274301827	
49.0638118761258	0.00832214355468749	44.1999998884057	443	0.000162748779985122	
49.1638118758733	0.00831298828125	44.2999998881533	444	-0.000233970189583488	
49.2638118756208	0.0083160400390625	44.3999998879008	445	0.000172949876287021	
49.3638118753684	0.0083282470703125	44.4999998876483	446	0.000157660644617863	
49.4638118751159	0.0083282470703125	44.5999998873958	447	-0.000132232409669086	
49.5638118748634	0.00832519531250001	44.6999998871433	448	-1.52612865349511E-05	
49.6638118746109	0.0083282470703125	44.7999998868909	449	9.15459895622917E-05	
49.7638118743585	0.008319091796875	44.8999998866384	450	-0.000213605249882676	
49.863811874106	0.00832519531250001	44.9999998863859	451	0.000228851014981046	
49.9638118738535	0.008319091796875	45.0999998861334	452	-0.000213605249882676	
50.063811873601	0.0083160400390625	45.199999885881	453	3.55858683178667E-05	
50.1638118733486	0.008331298828125	45.2999998856285	454	0.000295012228889391	
50.2638118730961	0.0083282470703125	45.399999885376	455	-0.000244146445766091	
50.3638118728436	0.00832519531250001	45.4999998851235	456	3.05225730699021E-05	
50.4638118725911	0.008331298828125	45.5999998848711	457	0.000137326744152233	
50.5638118723386	0.00833740234374999	45.6999998846186	458	3.05256799038034E-05	
50.6638118720862	0.008331298828125	45.7999998843661	459	-0.000162764292326756	
50.7638118718337	0.0083343505859375	45.8999998841136	460	0.000147509214002639	
50.8638118715812	0.008331298828125	45.9999998838612	461	-0.000111914036097005	
50.9638118713287	0.008349609375	46.0999998836087	462	0.000381482503144071	
51.0638118710763	0.008331298828125	46.1999998833562	463	-0.000559505017008632	
51.1638118708238	0.0083343505859375	46.2999998831037	464	0.00033061983413063	
51.2638118705713	0.0083343505859375	46.3999998828513	465	-9.66496445471421E-05	
51.3638118703188	0.00833740234374999	46.4999998825988	466	6.61239682813175E-05	
51.4638118700664	0.0083282470703125	46.5999998823463	467	-0.000203453819267452	
51.5638118698139	0.00835266113281249	46.6999998820938	468	0.000564602436497808	
51.6638118695614	0.00833740234374999	46.7999998818414	469	-0.000595097080804408	
51.7638118693089	0.00833740234374999	46.8999998815889	470	0.000259407737758011	
51.8638118690565	0.0083343505859375	46.9999998813364	471	-0.000106810381112155	
51.963811868804	0.008331298828125	47.0999998810839	472	-2.03587314899778E-05	
52.0638118685515	0.00834045410156251	47.1999998808315	473	0.000193274448974989	
52.163811868299	0.0083343505859375	47.299999880579	474	-0.000228872740990482	
52.2638118680466	0.008349609375	47.3999998803265	475	0.000381457677576691	
52.3638118677941	0.00833740234374999	47.499999880074	476	-0.000422156503191218	
52.4638118675416	0.0083465576171875	47.5999998798216	477	0.000361126876669005	
52.5638118672891	0.00833740234374999	47.6999998795691	478	-0.000315336801577359	
52.6638118670367	0.0083343505859375	47.7999998793166	479	8.13790466054343E-05	
52.7638118667842	0.008343505859375	47.8999998790641	480	0.00017291572294198	
52.8638118665317	0.0083343505859375	47.9999998788117	481	-0.000284804933471605	
52.9638118662792	0.00833740234374999	48.0999998785592	482	0.000193265135749243	
53.0638118660268	0.00834045410156251	48.1999998783067	483	-1.01793657449889E-05	
53.1638118657743	0.00834045410156251	48.2999998780542	484	-2.5434443159611E-05	
53.2638118655218	0.0083465576171875	48.3999998778017	485	0.000122071665828116	
53.3638118652693	0.008349609375	48.4999998775493	486	-1.52550783241168E-05	
53.4638118650169	0.0083465576171875	48.5999998772968	487	-7.12214095983654E-05	
53.5638118647644	0.0083465576171875	48.6999998770443	488	4.57838614238426E-05	
53.6638118645119	0.008349609375	48.7999998767918	489	4.57807582279202E-05	
53.7638118642594	0.0083465576171875	48.8999998765394	490	-9.15677228476852E-05	
53.8638118640069	0.008349609375	48.9999998762869	491	0.000101737772638444	
53.9638118637545	0.0083343505859375	49.0999998760344	492	-0.000325531698763371	
54.063811863502	0.00835571289062501	49.1999998757819	493	0.000579817162360996	
54.1638118632495	0.008349609375	49.2999998755295	494	-0.000411970919230953	
54.263811862997	0.008343505859375	49.399999875277	495	3.04946352116531E-05	
54.3638118627446	0.008349609375	49.4999998750245	496	0.000162789132446051	
54.4638118624921	0.008349609375	49.599999874772	497	-9.15708296815865E-05	
54.5638118622396	0.0083465576171875	49.6999998745196	498	-3.56107047991827E-05	
54.6638118619871	0.0083465576171875	49.7999998742671	499	3.56107047991827E-05	
54.7638118617347	0.0083587646484375	49.8999998740146	500	0.000213617662666366	
54.8638118614822	0.00836181640625	49.9999998737621	501	-8.6451655079145E-05	
54.9638118612297	0.008349609375	50.0999998735097	502	-0.000218711997149512	
55.0638118609772	0.00836181640625	50.1999998732572	503	0.000376369542209432	
55.1638118607248	0.0083587646484375	50.2999998730047	504	-0.000239052111282945	
55.2638118604723	0.00836791992187499	50.3999998727522	505	0.000244165072217584	
55.3638118602198	0.0083587646484375	50.4999998724998	506	-0.000284848385490477	
55.4638118599673	0.00836181640625	50.5999998722473	507	0.000193296189536341	
55.5638118597149	0.00835266113281249	50.6999998719948	508	-0.000233967075473629	
55.6638118594624	0.00836791992187499	50.7999998717423	509	0.000396734481910244	
55.7638118592099	0.00836791992187499	50.8999998714899	510	-0.000208529527299106	
55.8638118589574	0.00835266113281249	50.9999998712374	511	-0.000228875840548426	
55.963811858705	0.008349609375	51.0999998709849	512	0.000122071665828116	
56.0638118584525	0.0083648681640625	51.1999998707324	513	0.000264477246673778	
56.1638118582	0.00837097167968751	51.29999987048	514	-7.63126445235685E-05	
56.2638118579475	0.00836181640625	51.3999998702275	515	-0.000188180114491843	
56.3638118576951	0.0083587646484375	51.499999869975	516	7.11996763129719E-05	
56.4638118574426	0.0083740234375	51.5999998697225	517	0.00028484218637459	
56.5638118571901	0.00837097167968751	51.69999986947	518	-0.000244143331656232	
56.6638118569376	0.00836181640625	51.7999998692176	519	-8.13821461633779E-05	
56.7638118566852	0.00837097167968751	51.8999998689651	520	0.000264474132563919	
56.8638118564327	0.00836181640625	51.9999998687126	521	-0.000305169873172417	
56.9638118561802	0.00836181640625	52.0999998684601	522	0.000137326744152233	
57.0638118559277	0.0083770751953125	52.1999998682077	523	0.000249228382017463	
57.1638118556752	0.00837097167968751	52.2999998679552	524	-0.00028992720763199	
57.2638118554228	0.00836181640625	52.3999998677027	525	-4.5771445002174E-05	
57.3638118551703	0.00836791992187499	52.4999998674502	526	0.000198371897567995	
57.4638118549178	0.0083648681640625	52.5999998671978	527	-0.000157673057401553	
57.5638118546653	0.0083587646484375	52.6999998669453	528	-5.59663312742487E-05	
57.6638118544129	0.00836791992187499	52.7999998666928	529	0.000228913093451411	
57.7638118541604	0.00836791992187499	52.8999998664403	530	-0.000127159801195376	
57.8638118539079	0.00835571289062501	52.9999998661879	531	-0.000193289975868538	
57.9638118536554	0.00836181640625	53.0999998659354	532	0.000254319602390751	
58.063811853403	0.00837097167968751	53.1999998656829	533	5.59352884010877E-05	
58.1638118531505	0.0083770751953125	53.2999998654304	534	2.54375481745228E-05	
58.263811852898	0.00836791992187499	53.399999865178	535	-0.000208529527299106	
58.3638118526455	0.00837097167968751	53.4999998649255	536	0.000183091979124583	
58.4638118523931	0.0083648681640625	53.599999864673	537	-0.000178006957867183	
58.5638118521406	0.00837097167968751	53.6999998644205	538	0.00019324962340761	
58.6638118518881	0.0083770751953125	53.7999998641681	539	2.03587314899778E-05	
58.7638118516356	0.00837097167968751	53.8999998639156	540	-0.000162773605552502	
58.8638118513832	0.00836791992187499	53.9999998636631	541	3.56200180249289E-05	
58.9638118511307	0.00836791992187499	54.0999998634106	542	1.52612865349511E-05	
59.0638118508782	0.00838317871093749	54.1999998631582	543	0.000269580894382671	
59.1638118506257	0.00837097167968751	54.2999998629057	544	-0.00040182881639339	
59.2638118503733	0.0083648681640625	54.3999998626532	545	8.13914593891241E-05	
59.3638118501208	0.0083648681640625	54.4999998624007	546	3.05039484373992E-05	
59.4638118498683	0.0083740234375	54.5999998621483	547	0.000147490587551147	
59.5638118496158	0.0083740234375	54.6999998618958	548	-0.000106794861494564	
59.6638118493634	0.0083648681640625	54.7999998616433	549	-0.000137317430926487	
59.7638118491109	0.0083740234375	54.8999998613908	550	0.000274631776846945	
59.8638118488584	0.008380126953125	54.9999998611383	551	-2.54034002864501E-05	
59.9638118486059	0.0083770751953125	55.0999998608859	552	-9.66620646067895E-05	
60.0638118483535	0.00837097167968751	55.1999998606334	553	-5.59508080186788E-05	
60.163811848101	0.0083770751953125	55.2999998603809	554	0.000172937448951416	
60.2638118478485	0.00838623046875001	55.3999998601284	555	7.62815980124287E-05	
60.363811847596	0.0083740234375	55.499999859876	556	-0.000310261093545705	
60.4638118473436	0.008380126953125	55.5999998596235	557	0.000284848385490477	
60.5638118470911	0.008380126953125	55.699999859371	558	-0.000111914036097005	
60.6638118468386	0.008380126953125	55.7999998591185	559	2.03432082344079E-05	
60.7638118465861	0.008380126953125	55.8999998588661	560	-3.1044116166612E-09	
60.8638118463336	0.00837097167968751	55.9999998586136	561	-0.000167864840477705	
60.9638118460812	0.0083892822265625	56.0999998583611	562	0.000442512129666284	
61.0638118458287	0.0083770751953125	56.1999998581086	563	-0.000467924837721512	
61.1638118455762	0.008380126953125	56.2999998578562	564	0.000259398424532264	
61.2638118453237	0.0083953857421875	56.3999998576037	565	0.000203441406483762	
61.3638118450713	0.008392333984375	56.4999998573512	566	-0.000223803232074715	
61.4638118448188	0.008380126953125	56.5999998570987	567	-0.000137317430926487	
61.5638118445663	0.00838623046875001	56.6999998568463	568	0.000244115406530909	
61.6638118443138	0.008380126953125	56.7999998565938	569	-0.000223778406507336	
61.7638118440614	0.00838623046875001	56.8999998563413	570	0.00020342278003227	
61.8638118438089	0.008392333984375	56.9999998560888	571	2.03587314899778E-05	
61.9638118435564	0.00838317871093749	57.0999998558364	572	-0.000218702683923766	
62.0638118433039	0.008392333984375	57.1999998555839	573	0.000294999801553786	
62.1638118430515	0.00838623046875001	57.2999998553314	574	-0.000249234581133351	
62.263811842799	0.00838317871093749	57.3999998550789	575	4.57900714536663E-05	
62.3638118425465	0.00838623046875001	57.4999998548265	576	7.11903630872257E-05	
62.463811842294	0.00838623046875001	57.599999854574	577	-4.57776513940189E-05	
62.5638118420416	0.00839843749999999	57.6999998543215	578	0.000233979502809234	
62.6638118417891	0.00838623046875001	57.799999854069	579	-0.000366227439371869	
62.7638118415366	0.008392333984375	57.8999998538166	580	0.000295012228889391	
62.8638118412841	0.0083953857421875	57.9999998535641	581	-5.59477048227564E-05	
62.9638118410317	0.008392333984375	58.0999998533116	582	-7.12214095983654E-05	
63.0638118407792	0.00838623046875001	58.1999998530591	583	-6.61239682813175E-05	
63.1638118405267	0.008392333984375	58.2999998528067	584	0.000172937448951416	
63.2638118402742	0.0083953857421875	58.3999998525542	585	-3.56013915734366E-05	
63.3638118400218	0.008392333984375	58.4999998523017	586	-7.12214095983654E-05	
63.4638118397693	0.0083953857421875	58.5999998520492	587	0.000101737772638444	
63.5638118395168	0.00838623046875001	58.6999998517967	588	-0.000213648701901548	
63.6638118392643	0.008404541015625	58.7999998515443	589	0.000452685286290944	
63.7638118390119	0.00839843749999999	58.8999998512918	590	-0.000356017029844224	
63.8638118387594	0.008404541015625	58.9999998510393	591	0.000244124719756655	
63.9638118385069	0.0083953857421875	59.0999998507868	592	-0.000259376683970913	
64.0638118382544	0.0084075927734375	59.1999998505344	593	0.000350928894476965	
64.1638118380019	0.00839843749999999	59.2999998502819	594	-0.000340761936968192	
64.2638118377495	0.0083953857421875	59.3999998500294	595	9.15522032300942E-05	
64.363811837497	0.00841369628906249	59.4999998497769	596	0.000340777449309826	
64.4638118372445	0.00840148925781251	59.5999998495245	597	-0.000447600265033543	
64.563811836992	0.00841064453125	59.699999849272	598	0.000371309346519411	
64.6638118367396	0.00839843749999999	59.7999998490195	599	-0.000371306261513382	
64.7638118364871	0.00839843749999999	59.899999848767	600	0.000172946762177162	
64.8638118362346	0.0084075927734375	59.9999998485146	601	0.000127153587527573	
64.9638118359821	0.008404541015625	60.0999998482621	602	-0.000162764292326756	
65.0638118357297	0.0084075927734375	60.1999998480096	603	0.000122084093163721	
65.1638118354772	0.008404541015625	60.2999998477571	604	-0.000101737772638444	
65.2638118352247	0.00841369628906249	60.3999998475047	605	0.000213648701901548	
65.3638118349722	0.00839843749999999	60.4999998472522	606	-0.000396731367800385	
65.4638118347198	0.00841064453125	60.5999998469997	607	0.000432335888035595	
65.5638118344673	0.0084075927734375	60.6999998467472	608	-0.000249240780249238	
65.6638118342148	0.0084075927734375	60.7999998464948	609	7.6300224463921E-05	
65.7638118339623	0.0084075927734375	60.8999998462423	610	-1.01731566246599E-05	
65.8638118337099	0.00840148925781251	60.9999998459898	611	-0.00011190782970516	
65.9638118334574	0.00841064453125	61.0999998457373	612	0.000239064524066634	
66.0638118332049	0.008392333984375	61.1999998454849	613	-0.00046286775614135	
66.1638118329524	0.00840148925781251	61.2999998452324	614	0.000411986460676417	
66.2638118327	0.00841064453125	61.3999998449799	615	9.31323462793898E-09	
66.3638118324475	0.00841674804687501	61.4999998447274	616	3.55765550921205E-05	
66.463811832195	0.0084075927734375	61.599999844475	617	-0.000208523328183219	
66.5638118319425	0.0084075927734375	61.6999998442225	618	0.000127153587527573	
66.6638118316901	0.0084197998046875	61.79999984397	619	0.000193274448974989	
66.7638118314376	0.00841369628906249	61.8999998437175	620	-0.000254288548603654	
66.8638118311851	0.00841369628906249	61.999999843465	621	0.000111895409645513	
66.9638118309326	0.00841369628906249	62.0999998432126	622	-2.03370000235736E-05	
67.0638118306802	0.0084197998046875	62.1999998429601	623	0.000111889203253668	
67.1638118304277	0.0084075927734375	62.2999998427076	624	-0.000294987403322011	
67.2638118301752	0.00841674804687501	62.3999998424551	625	0.000330588780343533	
67.3638118299227	0.00841369628906249	62.4999998422027	626	-0.000203435192815959	
67.4638118296702	0.00841064453125	62.5999998419502	627	1.01700525192427E-05	
67.5638118294178	0.00841674804687501	62.6999998416977	628	0.000137308117700741	
67.6638118291653	0.0084197998046875	62.7999998414452	629	-2.54251299338648E-05	
67.7638118289128	0.00841674804687501	62.8999998411928	630	-7.12058899807744E-05	
67.8638118286603	0.00841369628906249	62.9999998409403	631	-1.01638433989137E-05	
67.9638118284079	0.0084197998046875	63.0999998406878	632	0.000137317430926487	
68.0638118281554	0.00841064453125	63.1999998404353	633	-0.000249203527346253	
68.1638118279029	0.00842895507812499	63.2999998401829	634	0.000462836702354252	
68.2638118276504	0.0084075927734375	63.3999998399304	635	-0.000635780394077301	
68.363811827398	0.0084259033203125	63.4999998396779	636	0.000645962834823877	
68.4638118271455	0.00841064453125	63.5999998394254	637	-0.000564586895052344	
68.563811826893	0.00841674804687501	63.699999839173	638	0.000350935093592852	
68.6638118266405	0.00841674804687501	63.7999998389205	639	-0.000122068566270173	
68.7638118263881	0.0084228515625	63.899999838668	640	0.000132244822452776	
68.8638118261356	0.00842895507812499	63.9999998384155	641	4.06988365284633E-05	
68.9638118258831	0.0084228515625	64.0999998381631	642	-0.000162764292326756	
69.0638118256306	0.00842895507812499	64.1999998379106	643	0.000203463132493198	
69.1638118253782	0.00842895507812499	64.2999998376581	644	-9.15490963961929E-05	
69.2638118251257	0.00841674804687501	64.3999998374056	645	-0.000203463132493198	
69.3638118248732	0.0084197998046875	64.4999998371532	646	0.000198365683900192	
69.4638118246207	0.00841674804687501	64.5999998369007	647	-0.000132241722894832	
69.5638118243683	0.0084259033203125	64.6999998366482	648	0.000213626975892112	
69.6638118241158	0.00842895507812499	64.7999998363957	649	-6.10420465818606E-05	
69.7638118238633	0.00841674804687501	64.8999998361433	650	-0.000228888267884031	
69.8638118236108	0.00843505859375	64.9999998358908	651	0.000488283578306437	
69.9638118233584	0.00843505859375	65.0999998356383	652	-0.000254307175055146	
70.0638118231059	0.0084381103515625	65.1999998353858	653	0.000116992850962561	
70.1638118228534	0.00843505859375	65.2999998351333	654	-9.1564616013784E-05	
70.2638118226009	0.00843505859375	65.3999998348809	655	4.57869646197651E-05	
70.3638118223485	0.00843505859375	65.4999998346284	656	-1.01700525192427E-05	
70.463811822096	0.00841674804687501	65.5999998343759	657	-0.000335695542162284	
70.5638118218435	0.0084259033203125	65.6999998341234	658	0.000381473189918324	
70.663811821591	0.0084259033203125	65.799999833871	659	-0.000167858641361818	
70.7638118213386	0.00842895507812499	65.8999998336185	660	8.64702815306373E-05	
70.8638118210861	0.00843200683593751	65.999999833366	661	2.03370000235736E-05	
70.9638118208336	0.00842895507812499	66.0999998331135	662	-8.13635197118856E-05	
71.0638118205811	0.008441162109375	66.1999998328611	663	0.000269568467047066	
71.1638118203286	0.0084381103515625	66.2999998326086	664	-0.000208548153750598	
71.2638118200762	0.00843505859375	66.3999998323561	665	2.03463132493198E-05	
71.3638118198237	0.00842895507812499	66.4999998321036	666	-8.64423418533988E-05	
71.4638118195712	0.00843200683593751	66.5999998318512	667	0.000116961811727379	
71.5638118193187	0.0084381103515625	66.6999998315987	668	5.59570180485025E-05	
71.6638118190663	0.0084381103515625	66.7999998313462	669	-6.10389397479594E-05	
71.7638118188138	0.00843505859375	66.8999998310937	670	-3.56076016032603E-05	
71.8638118185613	0.00844726562500001	66.9999998308413	671	0.000259404623648152	
71.9638118183088	0.00844421386718749	67.0999998305888	672	-0.000208529527299106	
72.0638118180564	0.0084381103515625	67.1999998303363	673	-3.56107047991827E-05	
72.1638118178039	0.00844421386718749	67.2999998300838	674	0.000172946762177162	
72.2638118175514	0.00844726562500001	67.3999998298314	675	-3.56200180249289E-05	
72.3638118172989	0.00844726562500001	67.4999998295789	676	-1.52612865349511E-05	
72.4638118170465	0.00844421386718749	67.5999998293264	677	-4.57652349723503E-05	
72.563811816794	0.00842895507812499	67.6999998290739	678	-0.000244137132540345	
72.6638118165415	0.008441162109375	67.7999998288215	679	0.000391646346542984	
72.763811816289	0.008441162109375	67.899999828569	680	-0.000193286876310594	
72.8638118160366	0.008441162109375	67.9999998283165	681	4.06864164688159E-05	
72.9638118157841	0.00844726562500001	68.099999828064	682	0.000111879890027922	
73.0638118155316	0.008441162109375	68.1999998278116	683	-0.00018308887956664	
73.1638118152791	0.008453369140625	68.2999998275591	684	0.000315330602461472	
73.2638118150267	0.00844421386718749	68.3999998273066	685	-0.000330588780343533	
73.3638118147742	0.00846252441406251	68.4999998270541	686	0.000483179930597544	
73.4638118145217	0.00844421386718749	68.5999998268017	687	-0.000579817162360996	
73.5638118142692	0.00844726562500001	68.6999998265492	688	0.000330588780343533	
73.6638118140168	0.008441162109375	68.7999998262967	689	-0.000208523328183219	
73.7638118137643	0.0084381103515625	68.8999998260442	690	2.54127135121962E-05	
73.8638118135118	0.0084503173828125	68.9999998257917	691	0.000239058310398832	
73.9638118132593	0.00844726562500001	69.0999998255393	692	-0.000208532641408965	
74.0638118130069	0.00844421386718749	69.1999998252868	693	2.03525214601541E-05	
74.1638118127544	0.008441162109375	69.2999998250343	694	-3.05194698739797E-05	
74.2638118125019	0.0084503173828125	69.3999998247818	695	0.0001932620361913	
74.3638118122494	0.008441162109375	69.4999998245294	696	-0.000284804933471605	
74.4638118119969	0.00844726562500001	69.5999998242769	697	0.000249194214120507	
74.5638118117445	0.008441162109375	69.6999998240244	698	-0.000213605249882676	
74.663811811492	0.00845947265624999	69.7999998237719	699	0.00042723843944259	
74.7638118112395	0.0084503173828125	69.8999998235195	700	-0.000401816418161616	
74.863811810987	0.008453369140625	69.999999823267	701	0.000223812545300461	
74.9638118107346	0.008453369140625	70.0999998230145	702	-6.61301746731624E-05	
75.0638118104821	0.00844421386718749	70.199999822762	703	-0.000157663744175807	
75.1638118102296	0.0084381103515625	70.2999998225096	704	-5.09123492520303E-06	
75.2638118099771	0.00846252441406251	70.3999998222571	705	0.00048827426508069	
75.3638118097247	0.00844726562500001	70.4999998220046	706	-0.000584927038289607	
75.4638118094722	0.00846252441406251	70.5999998217521	707	0.000539136934094131	
75.5638118092197	0.0084564208984375	70.6999998214997	708	-0.000340771250193939	
75.6638118089672	0.0084564208984375	70.7999998212472	709	0.000122059253044426	
75.7638118087148	0.00844421386718749	70.8999998209947	710	-0.000244137132540345	
75.8638118084623	0.00846252441406251	70.9999998207422	711	0.00047810110845603	
75.9638118082098	0.008453369140625	71.0999998204898	712	-0.000422153389081359	
76.0638118079573	0.00845947265624999	71.1999998202373	713	0.000279750936897472	
76.1638118077049	0.00845947265624999	71.2999998199848	714	-0.000101719146186952	
76.2638118074524	0.0084564208984375	71.3999998197323	715	-3.56013915734366E-05	
76.3638118071999	0.00844421386718749	71.4999998194799	716	-0.000188195641385391	
76.4638118069474	0.00845947265624999	71.5999998192274	717	0.000411998888012022	
76.563811806695	0.00844726562500001	71.6999998189749	718	-0.000442518357886001	
76.6638118064425	0.00846252441406251	71.7999998187224	719	0.000473019172204658	
76.76381180619	0.00847473144531249	71.89999981847	720	5.09744359078468E-06	
76.8638118059375	0.00845947265624999	71.9999998182175	721	-0.000371293834177777	
76.9638118056851	0.008453369140625	72.099999817965	722	0.000106810381112155	
77.0638118054326	0.00845947265624999	72.1999998177125	723	0.000132254135678522	
77.1638118051801	0.0084686279296875	72.29999981746	724	7.62878116802312E-05	
77.2638118049276	0.0084686279296875	72.3999998172076	725	-8.64640678628348E-05	
77.3638118046752	0.0084686279296875	72.4999998169551	726	3.05163648590678E-05	
77.4638118044227	0.008453369140625	72.5999998167026	727	-0.000279744737781584	
77.5638118041702	0.00846252441406251	72.6999998164501	728	0.000345856271451339	
77.6638118039177	0.00846252441406251	72.7999998161977	729	-0.000157679271069355	
77.7638118036652	0.0084686279296875	72.8999998159452	730	0.000142417979077436	
77.8638118034128	0.0084716796875	72.9999998156927	731	-1.52550783241168E-05	
77.9638118031603	0.0084564208984375	73.0999998154402	732	-0.000295012228889391	
78.0638118029078	0.008465576171875	73.1999998151878	733	0.000356026343069971	
78.1638118026553	0.00846252441406251	73.2999998149353	734	-0.000213611448998563	
78.2638118024029	0.0084686279296875	73.3999998146828	735	0.000178016271092929	
78.3638118021504	0.00846252441406251	73.4999998144303	736	-0.000193289975868538	
78.4638118018979	0.0084808349609375	73.5999998141779	737	0.000427247752668336	
78.5638118016454	0.00847778320312501	73.6999998139254	738	-0.000289914780296385	
78.663811801393	0.0084686279296875	73.7999998136729	739	-7.1208989538718E-05	
78.7638118011405	0.008465576171875	73.8999998134204	740	4.06833132728934E-05	
78.863811800888	0.0084716796875	73.999999813168	741	0.000117005271022208	
78.9638118006355	0.008465576171875	74.0999998129155	742	-0.000193305502762087	
79.0638118003831	0.00848999023437499	74.199999812663	743	0.000539177330210805	
79.1638118001306	0.008465576171875	74.2999998124105	744	-0.000752785650547594	
79.2638117998781	0.0084686279296875	74.3999998121581	745	0.000422178243752569	
79.3638117996256	0.008465576171875	74.4999998119056	746	-0.000172946762177162	
79.4638117993732	0.0084869384765625	74.5999998116531	747	0.000437439535744488	
79.5638117991207	0.00847778320312501	74.6999998114006	748	-0.000427278777351603	
79.6638117988682	0.00848999023437499	74.7999998111482	749	0.000401838129619136	
79.7638117986157	0.0084808349609375	74.8999998108957	750	-0.00034079299075529	
79.8638117983633	0.00849304199218751	74.9999998106432	751	0.000371306261513382	
79.9638117981108	0.00847778320312501	75.0999998103907	752	-0.000452691514510661	
80.0638117978583	0.0084716796875	75.1999998101383	753	0.000106819694337901	
80.1638117976058	0.00847473144531249	75.2999998098858	754	7.62878116802312E-05	
80.2638117973534	0.00848388671875	75.3999998096333	755	0.000111901616037358	
80.3638117971009	0.0084808349609375	75.4999998093808	756	-0.000152591135702096	
80.4638117968484	0.0084808349609375	75.5999998091283	757	6.61301746731624E-05	
80.5638117965959	0.00848388671875	75.6999998088759	758	4.57838614238426E-05	
80.6638117963435	0.00847473144531249	75.7999998086234	759	-0.000203447605599649	
80.763811796091	0.00848999023437499	75.8999998083709	760	0.000396734481910244	
80.8638117958385	0.0084808349609375	75.9999998081184	761	-0.000376391282770783	
80.963811795586	0.00849304199218751	76.099999807866	762	0.000381476304028183	
81.0638117953336	0.00849304199218751	76.1999998076135	763	-0.000172946762177162	
81.1638117950811	0.00848999023437499	76.299999807361	764	-1.52457650983706E-05	
81.2638117948286	0.00848388671875	76.3999998071085	765	-7.6300224463921E-05	
81.3638117945761	0.0084808349609375	76.4999998068561	766	5.08502625962137E-06	
81.4638117943236	0.008502197265625	76.5999998066036	767	0.000406920065870509	
81.5638117940712	0.00850830078125001	76.6999998063511	768	-0.000147534054121934	
81.6638117938187	0.0084869384765625	76.7999998060986	769	-0.000391624605981633	
81.7638117935662	0.0084869384765625	76.8999998058462	770	0.000269559153821319	
81.8638117933137	0.00848999023437499	76.9999998055937	771	-1.52550783241168E-05	
81.9638117930613	0.0084991455078125	77.0999998053412	772	0.000132244822452776	
82.0638117928088	0.00849304199218751	77.1999998050887	773	-0.000208545054192655	
82.1638117925563	0.00849609375	77.2999998048363	774	0.000157673057401553	
82.2638117923038	0.0084991455078125	77.3999998045838	775	1.24176464666448E-08	
82.3638117920514	0.008514404296875	77.4999998043313	776	0.000254307175055146	
82.4638117917989	0.008502197265625	77.5999998040788	777	-0.000391637033317238	
82.5638117915464	0.00849304199218751	77.6999998038264	778	2.54065034823725E-05	
82.6638117912939	0.008502197265625	77.7999998035739	779	0.000233985701925121	
82.7638117910415	0.00850830078125001	77.8999998033214	780	-2.5459279640927E-05	
82.863811790789	0.00850830078125001	77.9999998030689	781	-4.06864164688159E-05	
82.9638117905365	0.00850524902343749	78.0999998028165	782	-3.55920783476904E-05	
83.063811790284	0.0085113525390625	78.199999802564	783	0.000147490587551147	
83.1638117900316	0.00850524902343749	78.2999998023115	784	-0.00019324962340761	
83.2638117897791	0.00848999023437499	78.399999802059	785	-0.000188195641385391	
83.3638117895266	0.0084991455078125	78.4999998018066	786	0.000325519271427765	
83.4638117892741	0.00850830078125001	78.5999998015541	787	1.01638433989137E-05	
83.5638117890217	0.00850830078125001	78.6999998013016	788	-7.6300224463921E-05	
83.6638117887692	0.00850524902343749	78.7999998010491	789	-2.54189217230305E-05	
83.7638117885167	0.0085113525390625	78.8999998007967	790	0.000147490587551147	
83.8638117882642	0.0085174560546875	78.9999998005442	791	3.05411995213944E-05	
83.9638117880118	0.008502197265625	79.0999998002917	792	-0.000330626033246517	
84.0638117877593	0.00850524902343749	79.1999998000392	793	0.000254316488280892	
84.1638117875068	0.00850524902343749	79.2999997997867	794	-8.64547546370886E-05	
84.2638117872543	0.00850524902343749	79.3999997995343	795	1.01793657449889E-05	
84.3638117870019	0.0084991455078125	79.4999997992818	796	-0.000111901616037358	
84.4638117867494	0.00852050781249999	79.5999997990293	797	0.000462861557025462	
84.5638117864969	0.0085174560546875	79.6999997987768	798	-0.000325522385537624	
84.6638117862444	0.00852050781249999	79.7999997985244	799	0.000162758093210869	
84.7638117859919	0.0085113525390625	79.8999997982719	800	-0.000213626975892112	
84.8638117857395	0.00849609375	79.9999997980194	801	-0.000162748779985122	
84.963811785487	0.00852355957031251	80.0999997977669	802	0.000651038542855531	
85.0638117852345	0.00852355957031251	80.1999997975145	803	-0.000371309346519411	
85.163811784982	0.008514404296875	80.299999797262	804	-7.62909112381749E-05	
85.2638117847296	0.00850524902343749	80.3999997970095	805	-6.10265233262908E-05	
85.3638117844771	0.0085113525390625	80.499999796757	806	0.000188183214049786	
85.4638117842246	0.0085174560546875	80.5999997965046	807	1.01948871815694E-05	
85.5638117839721	0.00852355957031251	80.6999997962521	808	6.10016868449748E-05	
85.6638117837197	0.00853576660156249	80.7999997959996	809	0.000172956075402908	
85.7638117834672	0.00850830078125001	80.8999997957471	810	-0.000625628978013992	
85.8638117832147	0.00850524902343749	80.9999997954947	811	0.000305194698739797	
85.9638117829622	0.00852050781249999	81.0999997952422	812	0.000223797032958828	
86.0638117827098	0.008514404296875	81.1999997949897	813	-0.000300091051030904	
86.1638117824573	0.008526611328125	81.2999997947372	814	0.000345862499671057	
86.2638117822048	0.00853271484375	81.3999997944848	815	-5.08440534758847E-05	
86.3638117819523	0.0085418701171875	81.4999997942323	816	0.000137301918584853	
86.4638117816999	0.00852355957031251	81.5999997939798	817	-0.000422147189965472	
86.5638117814474	0.008514404296875	81.6999997937273	818	7.62909112381749E-05	
86.6638117811949	0.00852050781249999	81.7999997934749	819	0.000157682370627299	
86.7638117809424	0.00852355957031251	81.8999997932224	820	-4.57900714536663E-05	
86.86381178069	0.00853271484375	81.9999997929699	821	0.000152600448927842	
86.9638117804375	0.008526611328125	82.0999997927174	822	-0.000208560581086203	
87.063811780185	0.0085296630859375	82.199999792465	823	0.000157697897520848	
87.1638117799325	0.00852050781249999	82.2999997922125	824	-0.000223793918848969	
87.2638117796801	0.00852050781249999	82.39999979196	825	0.000116989751404617	
87.3638117794276	0.0085174560546875	82.4999997917075	826	-8.64640678628348E-05	
87.4638117791751	0.0085296630859375	82.599999791455	827	0.000259385997196659	
87.5638117789226	0.008526611328125	82.6999997912026	828	-0.000208535740966909	
87.6638117786702	0.00852355957031251	82.7999997909501	829	2.03494182642316E-05	
87.7638117784177	0.0085296630859375	82.8999997906976	830	0.000137326744152233	
87.8638117781652	0.0085296630859375	82.9999997904451	831	-8.13821461633779E-05	
87.9638117779127	0.00853271484375	83.0999997901927	832	7.6300224463921E-05	
88.0638117776602	0.00853271484375	83.1999997899402	833	-3.56138079951052E-05	
88.1638117774078	0.00853576660156249	83.2999997896877	834	6.61239682813175E-05	
88.2638117771553	0.0085174560546875	83.3999997894352	835	-0.000371290720067918	
88.3638117769028	0.008526611328125	83.4999997891828	836	0.000391624605981633	
88.4638117766503	0.00853881835937501	83.5999997889303	837	5.5960121244425E-05	
88.5638117763979	0.0085296630859375	83.6999997886778	838	-0.000279747851891443	
88.6638117761454	0.00853271484375	83.7999997884253	839	0.000203453819267452	
88.7638117758929	0.00853271484375	83.8999997881729	840	-6.61301746731624E-05	
88.8638117756404	0.008526611328125	83.9999997879204	841	-0.000101737772638444	
88.963811775388	0.0085418701171875	84.0999997876679	842	0.000350969261489809	
89.0638117751355	0.0085296630859375	84.1999997874154	843	-0.000422153389081359	
89.163811774883	0.00853576660156249	84.299999787163	844	0.000305179186398163	
89.2638117746305	0.00853271484375	84.3999997869105	845	-0.000167846214026213	
89.3638117743781	0.0085296630859375	84.499999786658	846	-1.24176464666448E-08	
89.4638117741256	0.00853576660156249	84.5999997864055	847	0.000137345370603725	
89.5638117738731	0.00853576660156249	84.6999997861531	848	-8.1375939771533E-05	
89.6638117736206	0.0085296630859375	84.7999997859006	849	-9.15553027880378E-05	
89.7638117733682	0.00853271484375	84.8999997856481	850	0.000127162900753319	
89.8638117731157	0.00853881835937501	84.9999997853956	851	5.59228683414403E-05	
89.9638117728632	0.00853576660156249	85.0999997851432	852	-0.000116961811727379	
90.0638117726107	0.0085479736328125	85.1999997848907	853	0.000279741623671725	
90.1638117723583	0.00853881835937501	85.2999997846382	854	-0.000320455990731716	
90.2638117721058	0.008544921875	85.3999997843857	855	0.00025941085186787	
90.3638117718533	0.00853576660156249	85.4999997841333	856	-0.000269565352937207	
90.4638117716008	0.0085418701171875	85.5999997838808	857	0.000239045897615142	
90.5638117713484	0.00853881835937501	85.6999997836283	858	-0.000157666858285666	
90.6638117710959	0.0085479736328125	85.7999997833758	859	0.000223797032958828	
90.7638117708434	0.008563232421875	85.8999997831233	860	0.000162748779985122	
90.8638117705909	0.00853271484375	85.9999997828709	861	-0.00070699246134609	
90.9638117703385	0.00853881835937501	86.0999997826184	862	0.000518781307619065	
91.063811770086	0.0085418701171875	86.1999997823659	863	-0.00011697733134497	
91.1638117698335	0.0085479736328125	86.2999997821134	864	9.6655850938987E-05	
91.263811769581	0.00853881835937501	86.399999781861	865	-0.000228913093451411	
91.3638117693285	0.00853881835937501	86.4999997816085	866	0.000127159801195376	
91.4638117690761	0.0085479736328125	86.599999781356	867	0.000137336057377979	
91.5638117688236	0.00853881835937501	86.6999997811035	868	-0.000274684542091563	
91.6638117685711	0.0085418701171875	86.7999997808511	869	0.000193286876310594	
91.7638117683186	0.00855102539062499	86.8999997805986	870	0.00010174708586419	
91.8638117680662	0.00855102539062499	86.9999997803461	871	-9.66403313213959E-05	
91.9638117678137	0.00855102539062499	87.0999997800936	872	3.05256799038034E-05	
92.0638117675612	0.00855712890625	87.1999997798412	873	0.000111889203253668	
92.1638117673087	0.0085479736328125	87.2999997795887	874	-0.000239033484831452	
92.2638117670563	0.008544921875	87.3999997793362	875	7.11841566953808E-05	
92.3638117668038	0.00853881835937501	87.4999997790837	876	-0.000106813487946056	
92.4638117665513	0.0085479736328125	87.5999997788313	877	0.000228891367441975	
92.5638117662988	0.0085418701171875	87.6999997785788	878	-0.000239076936850324	
92.6638117660464	0.0085479736328125	87.7999997783263	879	0.000213651816011406	
92.7638117657939	0.00855407714843751	87.8999997780738	880	2.0312165361247E-05	
92.8638117655414	0.00855102539062499	87.9999997778214	881	-0.000106788655102719	
92.9638117652889	0.00855407714843751	88.0999997775689	882	0.000111879890027922	
93.0638117650365	0.00855407714843751	88.1999997773164	883	-4.57776513940189E-05	
93.163811764784	0.0085479736328125	88.2999997770639	884	-0.000101719146186952	
93.2638117645315	0.0085479736328125	88.3999997768115	885	7.11965767550282E-05	
93.363811764279	0.00855712890625	88.499999776559	886	0.000147490587551147	
93.4638117640266	0.00855102539062499	88.5999997763065	887	-0.000218677858356386	
93.5638117637741	0.0085418701171875	88.699999776054	888	-6.61394878989086E-05	
93.6638117635216	0.00855407714843751	88.7999997758016	889	0.000310270406771451	
93.7638117632691	0.00855102539062499	88.8999997755491	890	-0.000228875840548426	
93.8638117630167	0.00855407714843751	88.9999997752966	891	0.000132226196001284	
93.9638117627642	0.0085723876953125	89.0999997750441	892	0.000289921008516103	
94.0638117625117	0.00855407714843751	89.1999997747917	893	-0.000539143162313849	
94.1638117622592	0.008544921875	89.2999997745392	894	0.000106810381112155	
94.2638117620068	0.008563232421875	89.3999997742867	895	0.000381473189918324	
94.3638117617543	0.00856628417968749	89.4999997740342	896	-0.000188195641385391	
94.4638117615018	0.008544921875	89.5999997737817	897	-0.000366208812920377	
94.5638117612493	0.00855407714843751	89.6999997735293	898	0.00042723843944259	
94.6638117609969	0.0085601806640625	89.7999997732768	899	-6.6117754613515E-05	
94.7638117607444	0.00855102539062499	89.8999997730243	900	-0.000208529527299106	
94.8638117604919	0.00855712890625	89.9999997727718	901	0.000239045897615142	
94.9638117602394	0.00855407714843751	90.0999997725194	902	-0.000157666858285666	
95.0638117599869	0.0085601806640625	90.1999997722669	903	0.000167843114468269	
95.1638117597345	0.008563232421875	90.2999997720144	904	-2.54282349487767E-05	
95.263811759482	0.008563232421875	90.3999997717619	905	-1.52674965647748E-05	
95.3638117592295	0.00856933593750001	90.4999997715095	906	0.000122053046652582	
95.463811758977	0.00855102539062499	90.599999771257	907	-0.000406879698857665	
95.5638117587246	0.0085601806640625	90.6999997710045	908	0.000401807075832039	
95.6638117584721	0.00855407714843751	90.799999770752	909	-0.000279750936897472	
95.7638117582196	0.008563232421875	90.8999997704996	910	0.000269580894382671	
95.8638117579671	0.00856628417968749	90.9999997702471	911	-7.12152032065205E-05	
95.9638117577147	0.0085479736328125	91.0999997699946	912	-0.000340771250193939	
96.0638117574622	0.008575439453125	91.1999997697421	913	0.000727323291357607	
96.1638117572097	0.008575439453125	91.2999997694897	914	-0.000381463876692578	
96.2638117569572	0.00855407714843751	91.3999997692372	915	-0.00030010036425665	
96.3638117567048	0.0085723876953125	91.4999997689847	916	0.000584920810069889	
96.4638117564523	0.008575439453125	91.5999997687322	917	-0.000228869641432539	
96.5638117561998	0.008575439453125	91.6999997684798	918	2.54251299338648E-05	
96.6638117559473	0.008563232421875	91.7999997682273	919	-0.000213617662666366	
96.7638117556949	0.0085784912109375	91.8999997679748	920	0.000422150304075331	
96.8638117554424	0.0085784912109375	91.9999997677223	921	-0.000218711997149512	
96.9638117551899	0.00856628417968749	92.0999997674699	922	-0.000172931249835528	
97.0638117549374	0.00856933593750001	92.1999997672174	923	0.000198356370674446	
97.163811754685	0.0085723876953125	92.2999997669649	924	-2.03432082344079E-05	
97.2638117544325	0.0085723876953125	92.3999997667124	925	-2.54251299338648E-05	
97.36381175418	0.0085723876953125	92.49999976646	926	1.0176260730077E-05	
97.4638117539275	0.00858154296874999	92.5999997662075	927	0.000167864840477705	
97.5638117536751	0.0085601806640625	92.699999765955	928	-0.000498466077260673	
97.6638117534226	0.008563232421875	92.7999997657025	929	0.000335701741278172	
97.7638117531701	0.008563232421875	92.89999976545	930	-0.000106822801171802	
97.8638117529176	0.0085784912109375	92.9999997651976	931	0.000289914780296385	
97.9638117526652	0.00856933593750001	93.0999997649451	932	-0.000345884211128578	
98.0638117524127	0.0085723876953125	93.1999997646926	933	0.000213630075450055	
98.1638117521602	0.0085784912109375	93.2999997644401	934	4.57931746495888E-05	
98.2638117519077	0.008563232421875	93.3999997641877	935	-0.000340796104865149	
98.3638117516552	0.008587646484375	93.4999997639352	936	0.000645944208372384	
98.4638117514028	0.00858154296874999	93.5999997636827	937	-0.0004475598980207	
98.5638117511503	0.008587646484375	93.6999997634302	938	0.000264467933448032	
98.6638117508978	0.0085784912109375	93.7999997631778	939	-0.000259376683970913	
98.7638117506453	0.00858459472656251	93.8999997629253	940	0.000239021057495847	
98.8638117503929	0.008587646484375	93.9999997626728	941	-4.57683381682727E-05	
98.9638117501404	0.008575439453125	94.0999997624203	942	-0.000239042798057199	
99.0638117498879	0.00858154296874999	94.1999997621679	943	0.000264489644905552	
99.1638117496354	0.0085906982421875	94.2999997619154	944	5.59446016268339E-05	
99.263811749383	0.0085784912109375	94.3999997616629	945	-0.000310254894429818	
99.3638117491305	0.008575439453125	94.4999997614104	946	0.000116968018119223	
99.463811748878	0.008575439453125	94.599999761158	947	-5.07881713929237E-06	
99.5638117486255	0.00858459472656251	94.6999997609055	948	0.000157663744175807	
99.6638117483731	0.00858459472656251	94.799999760653	949	-0.000106816594779957	
99.7638117481206	0.0085906982421875	94.8999997604005	950	0.000142417979077436	
99.8638117478681	0.008575439453125	94.9999997601481	951	-0.000350953720044345	
99.9638117476156	0.008575439453125	95.0999997598956	952	0.000198365683900192	
100.063811747363	0.0085784912109375	95.1999997596431	953	5.09123492520303E-06	
100.163811747111	0.0085906982421875	95.2999997593906	954	0.000188177014933899	
100.263811746858	0.008575439453125	95.3999997591382	955	-0.000411980232456699	
100.363811746606	0.00858154296874999	95.4999997588857	956	0.000330616720020771	
100.463811746353	0.0085906982421875	95.5999997586332	957	4.5771445002174E-05	
100.563811746101	0.0085784912109375	95.6999997583807	958	-0.000310254894429818	
100.663811745848	0.00859375	95.7999997581283	959	0.000452666659839451	
100.763811745596	0.00859680175781249	95.8999997578758	960	-0.000162758093210869	
100.863811745343	0.0085906982421875	95.9999997576233	961	-9.66372244874947E-05	
100.963811745091	0.00859375	96.0999997573708	962	0.000137336057377979	
101.063811744838	0.00859375	96.1999997571183	963	-5.5960121244425E-05	
101.163811744586	0.0085723876953125	96.2999997568659	964	-0.000381482503144071	
101.263811744333	0.00858459472656251	96.3999997566134	965	0.000473034713650122	
101.363811744081	0.0085906982421875	96.4999997563609	966	-0.000101728459412698	
101.463811743829	0.008587646484375	96.5999997561084	967	-8.64733810885809E-05	
101.563811743576	0.00859375	96.699999755856	968	0.000167867954587564	
101.663811743324	0.008587646484375	96.7999997556035	969	-0.000193305502762087	
101.763811743071	0.008587646484375	96.899999755351	970	9.15708296815865E-05	
101.863811742819	0.008587646484375	96.9999997550985	971	-2.03432082344079E-05	
101.963811742566	0.00858459472656251	97.0999997548461	972	-5.59508080186788E-05	
102.063811742314	0.0086029052734375	97.1999997545936	973	0.000371290720067918	
102.163811742061	0.0085906982421875	97.2999997543411	974	-0.000447578524472192	
102.263811741809	0.008587646484375	97.3999997540886	975	0.000147490587551147	
102.363811741556	0.008587646484375	97.4999997538362	976	-5.07571303387522E-06	
102.463811741304	0.00858459472656251	97.5999997535837	977	-6.61239682813175E-05	
102.563811741051	0.0086029052734375	97.6999997533312	978	0.000371290720067918	
102.663811740799	0.0085906982421875	97.7999997530787	979	-0.000447578524472192	
102.763811740546	0.008587646484375	97.8999997528263	980	0.000147490587551147	
102.863811740294	0.00859985351562501	97.9999997525738	981	0.000218715111259371	
102.963811740041	0.008587646484375	98.0999997523213	982	-0.000376391282770783	
103.063811739789	0.00859680175781249	98.1999997520688	983	0.000350975460605696	
103.163811739536	0.00859985351562501	98.2999997518164	984	-9.15739292395301E-05	
103.263811739284	0.00859680175781249	98.3999997515639	985	-6.10172101005446E-05	
103.363811739031	0.00859680175781249	98.4999997513114	986	4.57776513940189E-05	
103.463811738779	0.00860595703125	98.5999997510589	987	0.000157673057401553	
103.563811738527	0.0086090087890625	98.6999997508065	988	-5.08564698975533E-05	
103.663811738274	0.00859985351562501	98.799999750554	989	-0.000172959189512767	
103.763811738022	0.00860595703125	98.8999997503015	990	0.000228894466999918	
103.863811737769	0.00861206054687499	98.999999750049	991	1.01793657449889E-05	
103.963811737517	0.00859680175781249	99.0999997497966	992	-0.000330601207679138	
104.063811737264	0.0086090087890625	99.1999997495441	993	0.000422162731410936	
104.163811737012	0.0086029052734375	99.2999997492916	994	-0.000305194698739797	
104.263811736759	0.0086090087890625	99.3999997490391	995	0.000223821858526208	
104.363811736507	0.00861511230468751	99.4999997487866	996	2.0312165361247E-05	
104.463811736254	0.00859680175781249	99.5999997485342	997	-0.000386533385608345	
104.563811736002	0.00859985351562501	99.6999997482817	998	0.000289899267954752	
104.663811735749	0.00861206054687499	99.7999997480292	999	0.000127175328088924	
104.763811735497	0.00860595703125	99.8999997477767	1000	-0.00024414955987595	
104.863811735244	0.00860595703125	99.9999997475243	1001	0.000111901616037358	
104.963811734992	0.00860595703125	100.099999747272	1002	-2.03463132493198E-05	
105.063811734739	0.00861206054687499	100.199999747019	1003	0.00011190782970516	
105.163811734487	0.00860595703125	100.299999746767	1004	-0.000183110605576076	
105.263811734234	0.00859680175781249	100.399999746514	1005	-7.62815980124287E-05	
105.363811733982	0.00859985351562501	100.499999746262	1006	0.000142399352625944	
105.463811733729	0.0086090087890625	100.599999746009	1007	0.000101737772638444	
105.563811733477	0.0086090087890625	100.699999745757	1008	-9.66527513810433E-05	
105.663811733225	0.00861511230468751	100.799999745504	1009	0.000142399352625944	
105.763811732972	0.0086181640625	100.899999745252	1010	-1.52519742186996E-05	
105.86381173272	0.00861206054687499	100.999999745	1011	-0.000127134961076081	
105.963811732467	0.008624267578125	101.099999744747	1012	0.000305169873172417	
106.063811732215	0.0086212158203125	101.199999744495	1013	-0.000218721310375258	
106.163811731962	0.0086029052734375	101.299999744242	1014	-0.000259398424532264	
106.26381173171	0.0086090087890625	101.39999974399	1015	0.000315367855364457	
106.363811731457	0.00861511230468751	101.499999743737	1016	-2.03773579414701E-05	
106.463811731205	0.0086181640625	101.599999743485	1017	5.09433948536753E-06	
106.563811730952	0.0086181640625	101.699999743232	1018	-1.52519742186996E-05	
106.6638117307	0.00861511230468751	101.79999974298	1019	-4.57776513940189E-05	
106.763811730447	0.0086212158203125	101.899999742727	1020	0.000147499900776893	
106.863811730195	0.008624267578125	101.999999742475	1021	-2.54282349487767E-05	
106.963811729942	0.0086090087890625	102.099999742222	1022	-0.000295012228889391	
107.06381172969	0.00859985351562501	102.19999974197	1023	2.03276867978275E-05	
107.163811729437	0.00861511230468751	102.299999741717	1024	0.000335695542162284	
107.263811729185	0.00861511230468751	102.399999741465	1025	-0.000208545054192655	
107.363811728932	0.00862731933593749	102.499999741212	1026	0.000274672114755958	
107.46381172868	0.0086212158203125	102.59999974096	1027	-0.000254319602390751	
107.563811728427	0.008624267578125	102.699999740707	1028	0.000167855527251959	
107.663811728175	0.0086212158203125	102.799999740455	1029	-0.000111914036097005	
107.763811727923	0.008624267578125	102.899999740202	1030	0.000101737772638444	
107.86381172767	0.0086212158203125	102.99999973995	1031	-0.000101740879472345	
107.963811727418	0.00861511230468751	103.099999739698	1032	-6.61239682813175E-05	
108.063811727165	0.00861206054687499	103.199999739445	1033	5.10054815094918E-06	
108.163811726913	0.0086181640625	103.299999739193	1034	0.000127144274301827	
108.26381172666	0.00861511230468751	103.39999973894	1035	-0.000137320545036346	
108.363811726408	0.00861206054687499	103.499999738688	1036	6.20882323332239E-09	
108.463811726155	0.008624267578125	103.599999738435	1037	0.000249225267907605	
108.563811725903	0.00861206054687499	103.699999738183	1038	-0.000376385054551065	
108.66381172565	0.0086334228515625	103.79999973793	1039	0.00057474453933537	
108.763811725398	0.00861511230468751	103.899999737678	1040	-0.000625604123342782	
108.863811725145	0.00863037109375001	103.999999737425	1041	0.000564562098588794	
108.963811724893	0.0086212158203125	104.099999737173	1042	-0.000406898325309157	
109.06381172464	0.00864562988281251	104.19999973692	1043	0.000605254725087434	
109.163811724388	0.00862731933593749	104.299999736668	1044	-0.000651026144623756	
109.263811724135	0.00862731933593749	104.399999736415	1045	0.000295006029773504	
109.363811723883	0.00864562988281251	104.499999736163	1046	0.000274647289188579	
109.46381172363	0.00862731933593749	104.59999973591	1047	-0.000549300806596875	
109.563811723378	0.0086212158203125	104.699999735658	1048	0.000162751879543066	
109.663811723125	0.0086334228515625	104.799999735405	1049	0.000233967075473629	
109.763811722873	0.00863037109375001	104.899999735153	1050	-0.000218705798033625	
109.863811722621	0.0086181640625	104.9999997349	1051	-0.000147509214002639	
109.963811722368	0.00862731933593749	105.099999734648	1052	0.000300112791592255	
110.063811722116	0.00863037109375001	105.199999734396	1053	-9.15739292395301E-05	
110.163811721863	0.0086334228515625	105.299999734143	1054	5.08657831232995E-05	
110.263811721611	0.0086334228515625	105.399999733891	1055	-2.54251299338648E-05	
110.363811721358	0.008636474609375	105.499999733638	1056	6.61301746731624E-05	
110.463811721106	0.0086212158203125	105.599999733386	1057	-0.000315355428028852	
110.563811720853	0.0086334228515625	105.699999733133	1058	0.000411983346566558	
110.663811720601	0.008624267578125	105.799999732881	1059	-0.000361105136107653	
110.763811720348	0.008636474609375	105.899999732628	1060	0.000371275207726285	
110.863811720096	0.008636474609375	105.999999732376	1061	-0.000172925036167726	
110.963811719843	0.00862731933593749	106.099999732123	1062	-0.000127147388411686	
111.063811719591	0.00864257812499999	106.199999731871	1063	0.000386561325285584	
111.163811719338	0.00861511230468751	106.299999731618	1064	-0.000712089939042926	
111.263811719086	0.00863037109375001	106.399999731366	1065	0.000651038542855531	
111.363811718833	0.008624267578125	106.499999731113	1066	-0.000381463876692578	
111.463811718581	0.00863037109375001	106.599999730861	1067	0.000233942249906249	
111.563811718328	0.00864257812499999	106.699999730608	1068	0.000132266563014127	
111.663811718076	0.008648681640625	106.799999730356	1069	-1.01855739558232E-05	
111.763811717824	0.00863037109375001	106.899999730103	1070	-0.000366202584700659	
111.863811717571	0.0086334228515625	106.999999729851	1071	0.000289908581180498	
111.963811717319	0.00864257812499999	107.099999729598	1072	7.12307228241116E-05	
112.063811717066	0.00864562988281251	107.199999729346	1073	-4.07112529501319E-05	
112.163811716814	0.008636474609375	107.299999729094	1074	-0.000172925036167726	
112.263811716561	0.0086334228515625	107.399999728841	1075	6.10265233262908E-05	
112.363811716309	0.00864562988281251	107.499999728589	1076	0.000228888267884031	
112.463811716056	0.00864562988281251	107.599999728336	1077	-0.000152600448927842	
112.563811715804	0.00865478515625	107.699999728084	1078	0.000208545054192655	
112.663811715551	0.0086395263671875	107.799999727831	1079	-0.000386567524401471	
112.763811715299	0.0086395263671875	107.899999727579	1080	0.000208535740966909	
112.863811715046	0.00864257812499999	107.999999727326	1081	5.08813036503852E-06	
112.963811714794	0.00864562988281251	108.099999727074	1082	2.03370000235736E-05	
113.063811714541	0.0086334228515625	108.199999726821	1083	-0.000249225267907605	
113.163811714289	0.00864257812499999	108.299999726569	1084	0.000320455990731716	
113.263811714036	0.0086517333984375	108.399999726316	1085	2.03338950086618E-05	
113.363811713784	0.008648681640625	108.499999726064	1086	-0.000132244822452776	
113.463811713531	0.008648681640625	108.599999725811	1087	6.61301746731624E-05	
113.563811713279	0.0086395263671875	108.699999725559	1088	-0.000178006957867183	
113.663811713026	0.0086395263671875	108.799999725306	1089	0.000106794861494564	
113.763811712774	0.00865478515625	108.899999725054	1090	0.000249225267907605	
113.863811712522	0.00865478515625	108.999999724801	1091	-0.000178022484760731	
113.963811712269	0.0086517333984375	109.099999724549	1092	-5.09433948536753E-06	
114.063811712017	0.0086517333984375	109.199999724297	1093	3.56107047991827E-05	
114.163811711764	0.0086334228515625	109.299999724044	1094	-0.000345871812896803	
114.263811711512	0.0086517333984375	109.399999723792	1095	0.000549331831280142	
114.363811711259	0.00865478515625	109.499999723539	1096	-0.000218711997149512	
114.463811711007	0.00864562988281251	109.599999723287	1097	-0.000142439719638787	
114.563811710754	0.008648681640625	109.699999723034	1098	0.000172940563061275	
114.663811710502	0.0086334228515625	109.799999722782	1099	-0.000345859385561198	
114.763811710249	0.0086517333984375	109.899999722529	1100	0.000523894268553704	
114.863811709997	0.0086395263671875	109.999999722277	1101	-0.000488283578306437	
114.963811709744	0.00865478515625	110.099999722024	1102	0.000483186129713431	
115.063811709492	0.0086517333984375	110.199999721772	1103	-0.000274665915640071	
115.163811709239	0.008648681640625	110.299999721519	1104	3.05194698739797E-05	
115.263811708987	0.00864257812499999	110.399999721267	1105	-8.64423418533988E-05	
115.363811708734	0.00865478515625	110.499999721014	1106	0.000284823559923097	
115.463811708482	0.00864257812499999	110.599999720762	1107	-0.000386558211175725	
115.563811708229	0.00866088867187501	110.699999720509	1108	0.000518790620844811	
115.663811707977	0.0086669921875	110.799999720257	1109	-0.00014240866585169	
115.763811707724	0.008648681640625	110.899999720004	1110	-0.000345874897902831	
115.863811707472	0.00865783691406249	110.999999719752	1111	0.000401841243728995	
115.96381170722	0.00866088867187501	111.099999719499	1112	-0.00011192024248885	
116.063811706967	0.00867919921875	111.199999719247	1113	0.000330610520904884	
116.163811706715	0.0086639404296875	111.299999718995	1114	-0.00048318924382329	
116.263811706462	0.00865478515625	111.399999718742	1115	7.12214095983654E-05	
116.36381170621	0.0086669921875	111.49999971849	1116	0.000279722997220233	
116.463811705957	0.008648681640625	111.599999718237	1117	-0.000508623663336039	
116.563811705705	0.0086669921875	111.699999717985	1118	0.000590021372772753	
116.663811705452	0.0086639404296875	111.799999717732	1119	-0.00033061983413063	
116.7638117052	0.00866088867187501	111.89999971748	1120	4.0695729694562E-05	
116.863811704947	0.0086669921875	111.999999717227	1121	0.000137326744152233	
116.963811704695	0.0086700439453125	112.099999716975	1122	-2.54282349487767E-05	
117.063811704442	0.00865478515625	112.199999716722	1123	-0.000295012228889391	
117.16381170419	0.00865783691406249	112.29999971647	1124	0.000244143331656232	
117.263811703937	0.0086639404296875	112.399999716217	1125	2.54282349487767E-05	
117.363811703685	0.00866088867187501	112.499999715965	1126	-0.00011697733134497	
117.463811703432	0.0086700439453125	112.599999715712	1127	0.000223797032958828	
117.56381170318	0.0086700439453125	112.69999971546	1128	-0.000116995957796462	
117.663811702927	0.00865783691406249	112.799999715207	1129	-0.000193274448974989	
117.763811702675	0.00865478515625	112.899999714955	1130	8.64733810885809E-05	
117.863811702422	0.00867309570312499	112.999999714702	1131	0.000330604292685166	
117.96381170217	0.0086700439453125	113.09999971445	1132	-0.000279738509561867	
118.063811701918	0.0086639404296875	113.199999714197	1133	-1.52768097905209E-05	
118.163811701665	0.00867614746093751	113.299999713945	1134	0.00028484218637459	
118.263811701413	0.00866088867187501	113.399999713693	1135	-0.000442518357886001	
118.36381170116	0.00867614746093751	113.49999971344	1136	0.00049844739260152	
118.463811700908	0.00866088867187501	113.599999713188	1137	-0.000508632976561785	
118.563811700655	0.008685302734375	113.699999712935	1138	0.000676482333801687	
118.663811700403	0.00866088867187501	113.799999712683	1139	-0.000783311319537461	
118.76381170015	0.0086517333984375	113.89999971243	1140	0.000198378111235797	
118.863811699898	0.0086639404296875	113.999999712178	1141	0.000249219039687887	
118.963811699645	0.00867614746093751	114.099999711925	1142	5.08688863192219E-05	
119.063811699393	0.0086639404296875	114.199999711673	1143	-0.000325528584653512	
119.16381169914	0.00867309570312499	114.29999971142	1144	0.000350975460605696	
119.263811698888	0.00867614746093751	114.399999711168	1145	-9.15739292395301E-05	
119.363811698635	0.0086822509765625	114.499999710915	1146	0.000106819694337901	
119.463811698383	0.00867309570312499	114.599999710663	1147	-0.000228875840548426	
119.56381169813	0.00867309570312499	114.69999971041	1148	0.000127162900753319	
119.663811697878	0.0086700439453125	114.799999710158	1149	-8.64640678628348E-05	
119.763811697625	0.00867309570312499	114.899999709905	1150	9.15490963961929E-05	
119.863811697373	0.0086700439453125	114.999999709653	1151	-0.000101719146186952	
119.96381169712	0.0086700439453125	115.0999997094	1152	4.57683381682727E-05	
120.063811696868	0.0086700439453125	115.199999709148	1153	-1.0176260730077E-05	
120.163811696616	0.00867919921875	115.299999708895	1154	0.000167833801242523	
120.263811696363	0.00867614746093751	115.399999708643	1155	-0.000162748779985122	
120.363811696111	0.00867919921875	115.499999708391	1156	0.000122062359878328	
120.463811695858	0.0086822509765625	115.599999708138	1157	1.01855739558232E-05	
120.563811695606	0.0086700439453125	115.699999707886	1158	-0.000249228382017463	
120.663811695353	0.008685302734375	115.799999707633	1159	0.00043232346069999	
120.763811695101	0.00867309570312499	115.899999707381	1160	-0.000442502816440538	
120.863811694848	0.0086822509765625	115.999999707128	1161	0.000361126876669005	
120.963811694596	0.0086822509765625	116.099999706876	1162	-0.000147499900776893	
121.063811694343	0.0086700439453125	116.199999706623	1163	-0.000193274448974989	
121.163811694091	0.008685302734375	116.299999706371	1164	0.000422150304075331	
121.263811693838	0.00867614746093751	116.399999706118	1165	-0.000386573752621189	
121.363811693586	0.00867309570312499	116.499999705866	1166	0.00010174708586419	
121.463811693333	0.00867919921875	116.599999705613	1167	0.000116971124953125	
121.563811693081	0.00869140625000001	116.699999705361	1168	0.000142424192745239	
121.663811692828	0.00869140625000001	116.799999705108	1169	-0.000122084093163721	
121.763811692576	0.00867919921875	116.899999704856	1170	-0.000183107506018132	
121.863811692323	0.00867614746093751	116.999999704603	1171	8.64702815306373E-05	
121.963811692071	0.00868835449218749	117.099999704351	1172	0.000218718210817315	
122.063811691819	0.00867614746093751	117.199999704098	1173	-0.000376400595996529	
122.163811691566	0.0086822509765625	117.299999703846	1174	0.000295012228889391	
122.263811691314	0.00869140625000001	117.399999703593	1175	5.59352884010877E-05	
122.363811691061	0.00867614746093751	117.499999703341	1176	-0.000366215012036264	
122.463811690809	0.008697509765625	117.599999703089	1177	0.000600182102061808	
122.563811690556	0.00867919921875	117.699999702836	1178	-0.000635789707303047	
122.663811690304	0.0086822509765625	117.799999702584	1179	0.000340796104865149	
122.763811690051	0.00869140625000001	117.899999702331	1180	7.11903630872257E-05	
122.863811689799	0.008685302734375	117.999999702079	1181	-0.000208526427741162	
122.963811689546	0.00867919921875	118.099999701826	1182	-1.01948871815694E-05	
123.063811689294	0.008685302734375	118.199999701574	1183	0.000162789132446051	
123.163811689041	0.00868835449218749	118.299999701321	1184	-3.56169148290064E-05	
123.263811688789	0.00868835449218749	118.399999701069	1185	-1.52457650983706E-05	
123.363811688536	0.00869140625000001	118.499999700816	1186	6.61084413877688E-05	
123.463811688284	0.0086822509765625	118.599999700564	1187	-0.000203444506041706	
123.563811688031	0.0086822509765625	118.699999700311	1188	0.000116980438178871	
123.663811687779	0.00870361328124999	118.799999700059	1189	0.000361136189894751	
123.763811687526	0.00869140625000001	118.899999699806	1190	-0.000473037827759981	
123.863811687274	0.0086822509765625	118.999999699554	1191	4.57838614238426E-05	
123.963811687021	0.008685302734375	119.099999699301	1192	0.000122071665828116	
124.063811686769	0.008697509765625	119.199999699049	1193	0.000157660644617863	
124.163811686517	0.0086944580078125	119.299999698796	1194	-0.000188189427717589	
124.263811686264	0.00867919921875	119.399999698544	1195	-0.000203441406483762	
124.363811686012	0.0086944580078125	119.499999698292	1196	0.000447594065917656	
124.463811685759	0.0086944580078125	119.599999698039	1197	-0.000228878954658285	
124.563811685507	0.00868835449218749	119.699999697787	1198	-6.10172101005446E-05	
124.663811685254	0.00867919921875	119.799999697534	1199	-9.6655850938987E-05	
124.763811685002	0.00868835449218749	119.899999697282	1200	0.000254341342952102	
