Time (s)	WE(1).Potential (V)	Corrected time (s)	Index	dWE(1).Potential/dt (V/s)	OCP value (V)
4.53380698855324	-0.000543212890625006	0	1	0	-0.000842554428998161
4.63380698830076	-0.000537109374999997	0.0999999997475243	2	6.10345741733909E-05	
4.73380698804829	-0.0005340576171875	0.199999999495049	3	1.52590801008046E-05	
4.83380698779581	-0.000540161132812494	0.299999999242573	4	-0.000127157254610211	
4.93380698754333	-0.000540161132812494	0.399999998990097	5	8.13796286820434E-05	
5.03380698729086	-0.000531005859375003	0.499999998737621	6	0.000147501530591398	
5.13380698703838	-0.000537109374999997	0.599999998485146	7	-0.000218709799810313	
5.23380698678591	-0.000540161132812494	0.69999999823267	8	4.57770474895369E-05	
5.33380698653343	-0.000543212890625006	0.799999997980194	9	-4.06895233027171E-05	
5.43380698628096	-0.000540161132812494	0.899999997727718	10	8.13788501545787E-05	
5.53380698602848	-0.000540161132812494	0.999999997475243	11	-4.57762689620722E-05	
5.633806985776	-0.000540161132812494	1.09999999722277	12	1.01719442682224E-05	
5.73380698552353	-0.000546264648437503	1.19999999697029	13	-0.000111896813905332	
5.83380698527105	-0.000552368164062497	1.29999999671782	14	-4.06912695325445E-05	
5.93380698501858	-0.000543212890625006	1.39999999646534	15	0.00021871057106182	
6.0338069847661	-0.000540161132812494	1.49999999621286	16	-7.12088440195657E-05	
6.13380698451363	-0.000540161132812494	1.59999999596039	17	-5.08636003360152E-06	
6.23380698426115	-0.000546264648437503	1.69999999570791	18	-0.00010172448673984	
6.33380698400867	-0.00054931640625	1.79999999545544	19	1.52577222252148E-05	
6.4338069837562	-0.000543212890625006	1.89999999520296	20	0.000127157254610211	
6.53380698350372	-0.000546264648437503	1.99999999495049	21	-0.000137328621349297	
6.63380698325125	-0.000543212890625006	2.09999999469801	22	0.000111897206807043	
6.73380698299877	-0.000546264648437503	2.19999999444553	23	-0.00010172448673984	
6.8338069827463	-0.000546264648437503	2.29999999419306	24	4.57756868854631E-05	
6.93380698249382	-0.000543212890625006	2.39999999394058	25	4.57762689620722E-05	
7.03380698224134	-0.000543212890625006	2.49999999368811	26	-3.560296681826E-05	
7.13380698198887	-0.000543212890625006	2.59999999343563	27	1.01729137895745E-05	
7.23380698173639	-0.000543212890625006	2.69999999318316	28	3.88049592459083E-10	
7.33380698148392	-0.000537109374999997	2.79999999293068	29	0.000111896813905332	
7.43380698123144	-0.00054931640625	2.8999999926782	30	-0.000295001111226156	
7.53380698097897	-0.000546264648437503	2.99999999242573	31	0.000218708242755383	
7.63380698072649	-0.000552368164062497	3.09999999217325	32	-0.000188192221685313	
7.73380698047401	-0.000546264648437503	3.19999999192078	33	0.00019327896006871	
7.83380698022154	-0.00054931640625	3.2999999916683	34	-0.000147502505569719	
7.93380697996906	-0.000546264648437503	3.39999999141583	35	0.000111898174509406	
8.03380697971659	-0.00054931640625	3.49999999116335	36	-0.000101725840067957	
8.13380697946411	-0.000543212890625006	3.59999999091087	37	0.000157674643560313	
8.23380697921164	-0.000546264648437503	3.6999999906584	38	-0.000137328621349297	
8.33380697895916	-0.000546264648437503	3.79999999040592	39	5.59482141397893E-05	
8.43380697870668	-0.000552368164062497	3.89999999015345	40	-0.000122070705401711	
8.53380697845421	-0.000546264648437503	3.99999998990097	41	0.00018310644372832	
8.63380697820173	-0.000543212890625006	4.0999999896485	42	-3.56045202352107E-05	
8.73380697794926	-0.000552368164062497	4.19999998939602	43	-0.000183104886673391	
8.83380697769678	-0.000540161132812494	4.29999998914354	44	0.000340778758982196	
8.93380697744431	-0.00054931640625	4.39999998889107	45	-0.000340778555255383	
9.03380697719183	-0.00054931640625	4.49999998863859	46	0.000147500948514789	
9.13380697693935	-0.00054931640625	4.59999998838612	47	-3.05173834931338E-05	
9.23380697668688	-0.000552368164062497	4.69999998813364	48	-5.59489890292753E-05	
9.3338069764344	-0.000546264648437503	4.79999998788117	49	0.000147502301842906	
9.43380697618193	-0.000552368164062497	4.89999998762869	50	-0.00019327896006871	
9.53380697592945	-0.000543212890625006	4.99999998737621	51	0.000259400490904227	
9.63380697567698	-0.000552368164062497	5.09999998712374	52	-0.00029500326490961	
9.7338069754245	-0.000555419921874994	5.19999998687126	53	8.13803999335505E-05	
9.83380697517202	-0.00054931640625	5.29999998661879	54	0.000116983370389789	
9.93380697491955	-0.00054931640625	5.39999998636631	55	-8.1380014307797E-05	
10.0338069746671	-0.00054931640625	5.49999998611383	56	2.03450526896631E-05	
10.1338069744146	-0.000555419921874994	5.59999998586136	57	-0.000111897978058551	
10.2338069741621	-0.000546264648437503	5.69999998560888	58	0.000239054075791501	
10.3338069739096	-0.00054931640625	5.79999998535641	59	-0.000183105861651711	
10.4338069736572	-0.000540161132812494	5.89999998510393	60	0.00023396713368129	
10.5338069734047	-0.000552368164062497	5.99999998485146	61	-0.00034077835152857	
10.6338069731522	-0.000546264648437503	6.09999998459898	62	0.00028483071946539	
10.7338069728997	-0.00054931640625	6.1999999843465	63	-0.000167847363627516	
10.8338069726473	-0.00054931640625	6.29999998409403	64	5.59491854801308E-05	
10.9338069723948	-0.000540161132812494	6.39999998384155	65	0.000157672897330485	
11.0338069721423	-0.00054931640625	6.49999998358908	66	-0.000274656835244969	
11.1338069718898	-0.000552368164062497	6.5999999833366	67	8.13794322311878E-05	
11.2338069716374	-0.000546264648437503	6.69999998308413	68	0.000116984920168761	
11.3338069713849	-0.00054931640625	6.79999998283165	69	-0.000137329974677414	
11.4338069711324	-0.000552368164062497	6.89999998257917	70	1.94024796229542E-10	
11.5338069708799	-0.000546264648437503	6.9999999823267	71	0.000137329785502516	
11.6338069706275	-0.000552368164062497	7.09999998207422	72	-0.00019327896006871	
11.733806970375	-0.00054931640625	7.19999998182175	73	0.000147502505569719	
11.8338069701225	-0.000546264648437503	7.29999998156927	74	-1.94024796229542E-10	
11.93380696987	-0.00054931640625	7.3999999813168	75	-8.13807928352617E-05	
12.0338069696176	-0.000546264648437503	7.49999998106432	76	0.000101725650893059	
12.1338069693651	-0.000552368164062497	7.59999998081184	77	-0.000157674832735211	
12.2338069691126	-0.000543212890625006	7.69999998055937	78	0.000249227945460007	
12.3338069688601	-0.000552368164062497	7.79999998030689	79	-0.00029500326490961	
12.4338069686077	-0.00054931640625	7.89999998005442	80	0.000193278377992101	
12.5338069683552	-0.000552368164062497	7.99999997980194	81	-0.000122070705401711	
12.6338069681027	-0.000546264648437503	8.09999997954947	82	0.000157674832735211	
12.7338069678502	-0.000555419921874994	8.19999997929699	83	-0.000249227945460007	
12.8338069675978	-0.000552368164062497	8.29999997904451	84	0.000183105279575102	
12.9338069673453	-0.00054931640625	8.39999997879204	85	-1.01717496363563E-05	
13.0338069670928	-0.000552368164062497	8.49999997853956	86	-8.13805963844061E-05	
13.1338069668403	-0.000558471679687506	8.59999997828709	87	-6.61195736029185E-05	
13.2338069665878	-0.000558471679687506	8.69999997803461	88	6.10347669862676E-05	
13.3338069663354	-0.000558471679687506	8.79999997778214	89	-2.0344470613054E-05	
13.4338069660829	-0.000561523437500003	8.89999997752966	90	-5.59486034035217E-05	
13.5338069658304	-0.000558471679687506	8.99999997727718	91	9.15521522983909E-05	
13.6338069655779	-0.000555419921874994	9.09999997702471	92	1.01719442682224E-05	
13.7338069653255	-0.000561523437500003	9.19999997677223	93	-0.000137327835545875	
13.833806965073	-0.000561523437500003	9.29999997651976	94	8.13790466054343E-05	
13.9338069648205	-0.000561523437500003	9.39999997626728	95	-2.03450526896631E-05	
14.033806964568	-0.000561523437500003	9.49999997601481	96	-1.94024796229542E-10	
14.1338069643156	-0.000558471679687506	9.59999997576233	97	5.59487962163985E-05	
14.2338069640631	-0.000558471679687506	9.69999997550985	98	-3.560296681826E-05	
14.3338069638106	-0.000558471679687506	9.79999997525738	99	1.01729137895745E-05	
14.4338069635581	-0.000552368164062497	9.8999999750049	100	0.000111896813905332	
14.5338069633057	-0.000561523437500003	9.99999997475243	101	-0.00023905212583486	
14.6338069630532	-0.000561523437500003	10.0999999745	102	0.000127154926303774	
14.7338069628007	-0.0005645751953125	10.1999999742475	103	-8.64665707922541E-05	
14.8338069625482	-0.0005645751953125	10.299999973995	104	3.56041309714783E-05	
14.9338069622958	-0.000567626953124997	10.3999999737425	105	-6.61215162836015E-05	
15.0338069620433	-0.000552368164062497	10.49999997349	106	0.000315347715513781	
15.1338069617908	-0.000561523437500003	10.5999999732376	107	-0.000356036267476156	
15.2338069615383	-0.000561523437500003	10.6999999729851	108	0.000157672504428774	
15.3338069612859	-0.000567626953124997	10.7999999727326	109	-0.000142415563459508	
15.4338069610334	-0.000561523437500003	10.8999999724801	110	0.00018310644372832	
15.5338069607809	-0.0005645751953125	10.9999999722277	111	-0.000147502505569719	
15.6338069605284	-0.0005645751953125	11.0999999719752	112	5.59491854801308E-05	
15.733806960276	-0.000561523437500003	11.1999999717227	113	4.57764654129278E-05	
15.8338069600235	-0.000561523437500003	11.2999999714702	114	-3.56043274223339E-05	
15.933806959771	-0.000558471679687506	11.3999999712178	115	6.61213198327459E-05	
16.0338069595185	-0.0005645751953125	11.4999999709653	116	-0.000147500948514789	
16.1338069592661	-0.0005645751953125	11.5999999707128	117	8.1380014307797E-05	
16.2338069590136	-0.000573730468750006	11.6999999704603	118	-0.000188190475455485	
16.3338069587611	-0.0005645751953125	11.7999999702079	119	0.000274656835244969	
16.4338069585086	-0.000555419921874994	11.8999999699554	120	3.05169960483909E-05	
16.5338069582562	-0.000558471679687506	11.9999999697029	121	-0.000132241475512274	
16.6338069580037	-0.000576782226562503	12.0999999694504	122	-0.000269571057287976	
16.7338069577512	-0.000573730468750006	12.199999969198	123	0.000259398337220773	
16.8338069574987	-0.000567626953124997	12.2999999689455	124	1.52584980241954E-05	
16.9338069572462	-0.000573730468750006	12.399999968693	125	-0.000172930609551258	
17.0338069569938	-0.000567626953124997	12.4999999684405	126	0.00020344858057797	
17.1338069567413	-0.000561523437500003	12.5999999681881	127	2.03464096557582E-05	
17.2338069564888	-0.000576782226562503	12.6999999679356	128	-0.000330606999341398	
17.3338069562363	-0.0005645751953125	12.7999999676831	129	0.000422157783759758	
17.4338069559839	-0.000558471679687506	12.8999999674306	130	-8.13788501545787E-05	
17.5338069557314	-0.000567626953124997	12.9999999671782	131	-0.000198364155949093	
17.6338069554789	-0.0005645751953125	13.0999999669257	132	0.000183105861651711	
17.7338069552264	-0.000567626953124997	13.1999999666732	133	-0.000122070705401711	
17.833806954974	-0.000573730468750006	13.2999999664207	134	-6.61195736029185E-05	
17.9338069547215	-0.000579833984375	13.3999999661683	135	-5.08632110722829E-05	
18.033806954469	-0.000576782226562503	13.4999999659158	136	0.000106811618024949	
18.1338069542165	-0.000570678710937494	13.5999999656633	137	5.59470499865711E-05	
18.2338069539641	-0.000573730468750006	13.6999999654108	138	-0.000116982206236571	
18.3338069537116	-0.000573730468750006	13.7999999651583	139	5.59487962163985E-05	
18.4338069534591	-0.000570678710937494	13.8999999649059	140	4.57754940725863E-05	
18.5338069532066	-0.000576782226562503	13.9999999646534	141	-0.00014750036643818	
18.6338069529542	-0.000585937499999994	14.0999999644009	142	-8.64679241203703E-05	
18.7338069527017	-0.000570678710937494	14.1999999641484	143	0.000366209773346782	
18.8338069524492	-0.000576782226562503	14.299999963896	144	-0.000320432911394164	
18.9338069521967	-0.000576782226562503	14.3999999636435	145	0.000122069148346782	
19.0338069519443	-0.000579833984375	14.499999963391	146	-7.6294039899949E-05	
19.1338069516918	-0.000582885742187497	14.5999999631385	147	-2.0344858057797E-05	
19.2338069514393	-0.000582885742187497	14.6999999628861	148	2.54318001680076E-05	
19.3338069511868	-0.000582885742187497	14.7999999626336	149	-1.01723317129654E-05	
19.4338069509344	-0.000585937499999994	14.8999999623811	150	-5.59487962163985E-05	
19.5338069506819	-0.000582885742187497	14.9999999621286	151	9.15519558475353E-05	
19.6338069504294	-0.000573730468750006	15.0999999618762	152	0.00012207128747832	
19.7338069501769	-0.000579833984375	15.1999999616237	153	-0.000208536686841398	
19.8338069499245	-0.000579833984375	15.2999999613712	154	0.000101725068816449	
19.933806949672	-0.000585937499999994	15.3999999611187	155	-0.000132243032567203	
20.0338069494195	-0.000579833984375	15.4999999608663	156	0.000183105075848289	
20.133806949167	-0.000579833984375	15.5999999606138	157	-9.15525379241444E-05	
20.2338069489145	-0.000576782226562503	15.6999999603613	158	7.6294039899949E-05	
20.3338069486621	-0.000582885742187497	15.7999999601088	159	-0.000147502301842906	
20.4338069484096	-0.000585937499999994	15.8999999598564	160	2.54319947998738E-05	
20.5338069481571	-0.000582885742187497	15.9999999596039	161	7.12069086148404E-05	
20.6338069479046	-0.000588989257812506	16.0999999593514	162	-0.000157672111527063	
20.7338069476522	-0.000585937499999994	16.1999999590989	163	0.000137327253469266	
20.8338069473997	-0.000582885742187497	16.2999999588465	164	1.94024796229542E-10	
20.9338069471472	-0.000588989257812506	16.399999958594	165	-0.000137327253469266	
21.0338069468947	-0.000582885742187497	16.4999999583415	166	0.000193276253412478	
21.1338069466423	-0.000579833984375	16.599999958089	167	-3.56025811925065E-05	
21.2338069463898	-0.000585937499999994	16.6999999578366	168	-0.000127157254610211	
21.3338069461373	-0.000582885742187497	16.7999999575841	169	0.000137328621349297	
21.4338069458848	-0.000592041015625003	16.8999999573316	170	-0.000223793627810664	
21.5338069456324	-0.000588989257812506	16.9999999570791	171	0.000172931584529579	
21.6338069453799	-0.0005950927734375	17.0999999568267	172	-0.000178018337464891	
21.7338069451274	-0.000588989257812506	17.1999999565742	173	0.000193277999642305	
21.8338069448749	-0.000588989257812506	17.2999999563217	174	-9.15521522983909E-05	
21.9338069446225	-0.000579833984375	17.3999999560692	175	0.000188190853805281	
22.03380694437	-0.000592041015625003	17.4999999558167	176	-0.000330605456838384	
22.1338069441175	-0.0005950927734375	17.5999999555643	177	0.000116982591862325	
22.233806943865	-0.000585937499999994	17.6999999553118	178	0.000162759635713883	
22.3338069436126	-0.000585937499999994	17.7999999550593	179	-0.000116983952466398	
22.4338069433601	-0.000579833984375	17.8999999548068	180	0.000142414981382899	
22.5338069431076	-0.000588989257812506	17.9999999545544	181	-0.000239052911638282	
22.6338069428551	-0.000592041015625003	18.0999999543019	182	7.12074906914495E-05	
22.7338069426027	-0.000588989257812506	18.1999999540494	183	6.10347669862676E-05	
22.8338069423502	-0.000592041015625003	18.2999999537969	184	-0.00010172448673984	
22.9338069420977	-0.000582885742187497	18.3999999535445	185	0.000213621111470275	
23.0338069418452	-0.000585937499999994	18.499999953292	186	-0.000172931584529579	
23.1338069415928	-0.000582885742187497	18.5999999530395	187	0.000122069344797637	
23.2338069413403	-0.000592041015625003	18.699999952787	188	-0.000213621111470275	
23.3338069410878	-0.000585937499999994	18.7999999525346	189	0.000228879027417861	
23.4338069408353	-0.000588989257812506	18.8999999522821	190	-0.000157672111527063	
23.5338069405828	-0.000592041015625003	18.9999999520296	191	-1.94024796229542E-10	
23.6338069403304	-0.000585937499999994	19.0999999517771	192	0.000137327253469266	
23.7338069400779	-0.0005950927734375	19.1999999515247	193	-0.000249225238803774	
23.8338069398254	-0.0005950927734375	19.2999999512722	194	0.000127155901282094	
23.9338069395729	-0.000592041015625003	19.3999999510197	195	2.54316055361414E-05	
24.0338069393205	-0.000585937499999994	19.4999999507672	196	7.62921044952236E-05	
24.133806939068	-0.000579833984375	19.5999999505148	197	5.08632110722829E-05	
24.2338069388155	-0.000588989257812506	19.6999999502623	198	-0.000218708053580485	
24.333806938563	-0.0005950927734375	19.7999999500098	199	1.52584980241954E-05	
24.4338069383106	-0.000592041015625003	19.8999999497573	200	9.66390944086015E-05	
24.5338069380581	-0.000588989257812506	19.9999999495049	201	-3.88049592459083E-10	
24.6338069378056	-0.000592041015625003	20.0999999492524	202	-8.13794322311878E-05	
24.7338069375531	-0.0005950927734375	20.1999999489999	203	-1.01733021438122E-05	
24.8338069373007	-0.000588989257812506	20.2999999487474	204	0.000137329581775703	
24.9338069370482	-0.000601196289062494	20.399999948495	205	-0.000305175577523187	
25.0338069367957	-0.000592041015625003	20.4999999482425	206	0.000330606620991603	
25.1338069365432	-0.000601196289062494	20.59999994799	207	-0.000315348879666999	
25.2338069362908	-0.000598144531249997	20.6999999477375	208	0.000193277795915492	
25.3338069360383	-0.000592041015625003	20.799999947485	209	4.57772403024137E-05	
25.4338069357858	-0.0005950927734375	20.8999999472326	210	-0.000116984920168761	
25.5338069355333	-0.000598144531249997	20.9999999469801	211	1.94024796229542E-10	
25.6338069352809	-0.0005950927734375	21.0999999467276	212	8.13807928352617E-05	
25.7338069350284	-0.000598144531249997	21.1999999464751	213	-0.000101725650893059	
25.8338069347759	-0.000592041015625003	21.2999999462227	214	0.000157674832735211	
25.9338069345234	-0.0005950927734375	21.3999999459702	215	-0.000137329974677414	
26.033806934271	-0.000598144531249997	21.4999999457177	216	1.94024796229542E-10	
26.1338069340185	-0.000598144531249997	21.5999999454652	217	2.54318001680076E-05	
26.233806933766	-0.000585937499999994	21.6999999452128	218	0.00021362207189668	
26.3338069335135	-0.000592041015625003	21.7999999449603	219	-0.000254311977187172	
26.4338069332611	-0.000604248046875006	21.8999999447078	220	-0.000111897788883653	
26.5338069330086	-0.0005950927734375	21.9999999444553	221	0.000289916119072586	
26.6338069327561	-0.000604248046875006	22.0999999442029	222	-0.00031534637673758	
26.7338069325036	-0.0005950927734375	22.1999999439504	223	0.000305174238746986	
26.8338069322512	-0.000598144531249997	22.2999999436979	224	-0.000193277417565696	
26.9338069319987	-0.000598144531249997	22.3999999434454	225	6.61217127344571E-05	
27.0338069317462	-0.0005950927734375	22.499999943193	226	4.57766582258046E-05	
27.1338069314937	-0.000601196289062494	22.5999999429405	227	-0.000147502112668008	
27.2338069312412	-0.0006103515625	22.699999942688	228	-8.64657922647893E-05	
27.3338069309888	-0.000598144531249997	22.7999999424355	229	0.000310260395053774	
27.4338069307363	-0.000598144531249997	22.8999999421831	230	-0.000172931584529579	
27.5338069304838	-0.000601196289062494	22.9999999419306	231	-1.52588854689384E-05	
27.6338069302313	-0.0005950927734375	23.0999999416781	232	0.000147500948514789	
27.7338069299789	-0.000592041015625003	23.1999999414256	233	-2.54310234595323E-05	
27.8338069297264	-0.0005950927734375	23.2999999411732	234	-7.12082619429566E-05	
27.9338069294739	-0.0005950927734375	23.3999999409207	235	4.57766582258046E-05	
28.0338069292214	-0.0005950927734375	23.4999999406682	236	-1.01725263448316E-05	
28.133806928969	-0.000598144531249997	23.5999999404157	237	-5.59489890292753E-05	
28.2338069287165	-0.0005950927734375	23.6999999401633	238	9.15533164516091E-05	
28.333806928464	-0.000604248046875006	23.7999999399108	239	-0.00021362207189668	
28.4338069282115	-0.000598144531249997	23.8999999396583	240	0.000228880380745977	
28.5338069279591	-0.000604248046875006	23.9999999394058	241	-0.000213620529393665	
28.6338069277066	-0.000601196289062494	24.0999999391533	242	0.000147499595186673	
28.7338069274541	-0.0005950927734375	24.1999999389009	243	5.59491854801308E-05	
28.8338069272016	-0.000598144531249997	24.2999999386484	244	-0.000116984148917254	
28.9338069269492	-0.000607299804687503	24.3999999383959	245	-0.000111896042653825	
29.0338069266967	-0.0005950927734375	24.4999999381434	246	0.000320431950967759	
29.1338069264442	-0.000604248046875006	24.599999937891	247	-0.000340777187375352	
29.2338069261917	-0.000604248046875006	24.6999999376385	248	0.000147501341416501	
29.3338069259393	-0.000607299804687503	24.799999937386	249	-8.64659887156449E-05	
29.4338069256868	-0.0006103515625	24.8999999371335	250	-2.0345827579149E-05	
29.5338069254343	-0.000604248046875006	24.9999999368811	251	0.000137329581775703	
29.6338069251818	-0.000598144531249997	25.0999999366286	252	3.05168014165247E-05	
29.7338069249294	-0.000604248046875006	25.1999999363761	253	-0.000162758093210869	
29.8338069246769	-0.000601196289062494	25.2999999361236	254	0.000147499595186673	
29.9338069244244	-0.000607299804687503	25.3999999358712	255	-0.000167845224495977	
30.0338069241719	-0.000604248046875006	25.4999999356187	256	0.000137328039272688	
30.1338069239195	-0.0006103515625	25.5999999353662	257	-0.000167845806572586	
30.233806923667	-0.000604248046875006	25.6999999351137	258	0.000193277999642305	
30.3338069234145	-0.0006103515625	25.7999999348613	259	-0.000203450137632899	
30.433806923162	-0.000601196289062494	25.8999999346088	260	0.000259397958870977	
30.5338069229095	-0.000604248046875006	25.9999999343563	261	-0.000183103911695071	
30.6338069226571	-0.000607299804687503	26.0999999341038	262	1.01723317129654E-05	
30.7338069224046	-0.000607299804687503	26.1999999338514	263	2.54308306466555E-05	
30.8338069221521	-0.000607299804687503	26.2999999335989	264	-1.0172720067203E-05	
30.9338069218996	-0.000607299804687503	26.3999999333464	265	-1.94024796229542E-10	
31.0338069216472	-0.000613403320312497	26.4999999330939	266	-0.000111898174509406	
31.1338069213947	-0.0006103515625	26.5999999328415	267	0.000127157443785109	
31.2338069211422	-0.0006103515625	26.699999932589	268	-5.59491854801308E-05	
31.3338069208897	-0.0006103515625	26.7999999323365	269	1.01725263448316E-05	
31.4338069206373	-0.000607299804687503	26.899999932084	270	5.59489890292753E-05	
31.5338069203848	-0.000604248046875006	26.9999999318316	271	2.03446634259308E-05	
31.6338069201323	-0.000607299804687503	27.0999999315791	272	-8.13794322311878E-05	
31.7338069198798	-0.000616455078124994	27.1999999313266	273	-0.00012207128747832	
31.8338069196274	-0.000607299804687503	27.2999999310741	274	0.00026448568678461	
31.9338069193749	-0.000616455078124994	27.3999999308217	275	-0.000305176363326609	
32.0338069191224	-0.0006103515625	27.4999999305692	276	0.000249226781306788	
32.1338069188699	-0.0006103515625	27.5999999303167	277	-0.000101725068816449	
32.2338069186175	-0.0006103515625	27.6999999300642	278	2.03450526896631E-05	
32.333806918365	-0.000619506835937506	27.7999999298117	279	-0.000167845413670875	
32.4338069181125	-0.000613403320312497	27.8999999295593	280	0.000218707849853672	
32.53380691786	-0.000616455078124994	27.9999999293068	281	-0.000157673086505383	
32.6338069176076	-0.000613403320312497	28.0999999290543	282	0.000111896813905332	
32.7338069173551	-0.000619506835937506	28.1999999288018	283	-0.000157672111527063	
32.8338069171026	-0.0006103515625	28.2999999285494	284	0.000249225238803774	
32.9338069168501	-0.0006103515625	28.3999999282969	285	-0.000127155901282094	
33.0338069165977	-0.000613403320312497	28.4999999280444	286	-2.54316055361414E-05	
33.1338069163452	-0.000604248046875006	28.5999999277919	287	0.000203451301786117	
33.2338069160927	-0.000607299804687503	28.6999999275395	288	-0.000172932748682797	
33.3338069158402	-0.0006103515625	28.799999927287	289	1.01717496363563E-05	
33.4338069155878	-0.000604248046875006	28.8999999270345	290	0.000137329581775703	
33.5338069153353	-0.0006103515625	28.999999926782	291	-0.000193277606740594	
33.6338069150828	-0.0006103515625	29.0999999265296	292	9.15525379241444E-05	
33.7338069148303	-0.000604248046875006	29.1999999262771	293	9.15529308258556E-05	
33.8338069145778	-0.000601196289062494	29.2999999260246	294	-1.52596621774137E-05	
33.9338069143254	-0.0006103515625	29.3999999257721	295	-0.000183104304596782	
34.0338069140729	-0.000601196289062494	29.4999999255197	296	0.00028482879861258	
34.1338069138204	-0.0006103515625	29.5999999252672	297	-0.000305174238746986	
34.2338069135679	-0.000607299804687503	29.6999999250147	298	0.000193277417565696	
34.3338069133155	-0.0006103515625	29.7999999247622	299	-0.000122070705401711	
34.433806913063	-0.000613403320312497	29.8999999245098	300	-1.01723317129654E-05	
34.5338069128105	-0.000607299804687503	29.9999999242573	301	0.000137329785502516	
34.633806912558	-0.0006103515625	30.0999999240048	302	-0.000137329974677414	
34.7338069123056	-0.000619506835937506	30.1999999237523	303	-0.000111896231828723	
34.8338069120531	-0.000613403320312497	30.2999999234999	304	0.000208535333513282	
34.9338069118006	-0.000613403320312497	30.3999999232474	305	-0.000101724093838129	
35.0338069115481	-0.000613403320312497	30.4999999229949	306	2.03450526896631E-05	
35.1338069112957	-0.000604248046875006	30.5999999227424	307	0.000167847159900703	
35.2338069110432	-0.000613403320312497	30.69999992249	308	-0.000274658203125	
35.3338069107907	-0.000607299804687503	30.7999999222375	309	0.000249227363383397	
35.4338069105382	-0.0006103515625	30.899999921985	310	-0.000157675021910109	
35.5338069102858	-0.0006103515625	30.9999999217325	311	5.59491854801308E-05	
35.6338069100333	-0.0006103515625	31.09999992148	312	-1.01725263448316E-05	
35.7338069097808	-0.0006103515625	31.1999999212276	313	0	
35.8338069095283	-0.000607299804687503	31.2999999209751	314	5.59489890292753E-05	
35.9338069092759	-0.0006103515625	31.3999999207226	315	-9.15533164516091E-05	
36.0338069090234	-0.000616455078124994	31.4999999204701	316	-6.61213198327459E-05	
36.1338069087709	-0.0006103515625	31.5999999202177	317	0.000172932559507899	
36.2338069085184	-0.000616455078124994	31.6999999199652	318	-0.000203450515982695	
36.333806908266	-0.000613403320312497	31.7999999197127	319	0.000147501137689687	
36.4338069080135	-0.000619506835937506	31.8999999194602	320	-0.000167844642419368	
36.533806907761	-0.0006103515625	31.9999999192078	321	0.000249225238803774	
36.6338069075085	-0.0006103515625	32.0999999189553	322	-0.000127155901282094	
36.7338069072561	-0.000622558593750003	32.1999999187028	323	-0.000193277024663985	
36.8338069070036	-0.000619506835937506	32.2999999184503	324	0.000198363195522688	
36.9338069067511	-0.000604248046875006	32.3999999181979	325	0.000203450515982695	
37.0338069064986	-0.000607299804687503	32.4999999179454	326	-0.000223794602788985	
37.1338069062462	-0.000607299804687503	32.5999999176929	327	8.64655958139338E-05	
37.2338069059937	-0.000622558593750003	32.6999999174404	328	-0.000289916119072586	
37.3338069057412	-0.000613403320312497	32.799999917188	329	0.000345863751135767	
37.4338069054887	-0.000613403320312497	32.8999999169355	330	-0.000157672504428774	
37.5338069052362	-0.000613403320312497	32.999999916683	331	3.0517578125E-05	
37.6338069049838	-0.0006103515625	33.0999999164305	332	5.59491854801308E-05	
37.7338069047313	-0.000613403320312497	33.1999999161781	333	-9.15531200007536E-05	
37.8338069044788	-0.000616455078124994	33.2999999159256	334	-1.01721379905939E-05	
37.9338069042263	-0.000613403320312497	33.3999999156731	335	8.13794322311878E-05	
38.0338069039739	-0.000616455078124994	33.4999999154206	336	-0.000101724675914738	
38.1338069037214	-0.0006103515625	33.5999999151682	337	0.000157673479407094	
38.2338069034689	-0.000613403320312497	33.6999999149157	338	-0.000137328999699093	
38.3338069032164	-0.000616455078124994	33.7999999146632	339	3.88049592459083E-10	
38.433806902964	-0.000619506835937506	33.8999999144107	340	-3.05169960483909E-05	
38.5338069027115	-0.000622558593750003	33.9999999141583	341	-3.0517578125E-05	
38.633806902459	-0.0006103515625	34.0999999139058	342	0.000249225238803774	
38.7338069022065	-0.000616455078124994	34.1999999136533	343	-0.000264484900981188	
38.8338069019541	-0.0006103515625	34.2999999134008	344	0.000223794995690696	
38.9338069017016	-0.000619506835937506	34.3999999131483	345	-0.000259397958870977	
39.0338069014491	-0.000613403320312497	34.4999999128959	346	0.000239052911638282	
39.1338069011966	-0.000619506835937506	34.5999999126434	347	-0.000213620529393665	
39.2338069009442	-0.000616455078124994	34.6999999123909	348	0.000147499595186673	
39.3338069006917	-0.000628662109374997	34.7999999121384	349	-0.00027974319527857	
39.4338069004392	-0.000619506835937506	34.899999911886	350	0.000320434657623991	
39.5338069001867	-0.000619506835937506	34.9999999116335	351	-0.000147501137689687	
39.6338068999343	-0.000616455078124994	35.099999911381	352	8.64654066390358E-05	
39.7338068996818	-0.000619506835937506	35.1999999111285	353	-9.15513737709261E-05	
39.8338068994293	-0.000613403320312497	35.2999999108761	354	0.000157672693603672	
39.9338068991768	-0.000622558593750003	35.3999999106236	355	-0.000249224453000352	
40.0338068989244	-0.000616455078124994	35.4999999103711	356	0.000239051354583353	
40.1338068986719	-0.0006103515625	35.5999999101186	357	1.01733021438122E-05	
40.2338068984194	-0.000622558593750003	35.6999999098662	358	-0.000274657038971782	
40.3338068981669	-0.000613403320312497	35.7999999096137	359	0.000330604671034962	
40.4338068979145	-0.000622558593750003	35.8999999093612	360	-0.000315345387207344	
40.533806897662	-0.0006256103515625	35.9999999091087	361	8.13784645288251E-05	
40.6338068974095	-0.0006103515625	36.0999999088563	362	0.000284830137388781	
40.733806897157	-0.000619506835937506	36.1999999086038	363	-0.00035603647120297	
40.8338068969045	-0.000616455078124994	36.2999999083513	364	0.000213621300645173	
40.9338068966521	-0.000613403320312497	36.3999999080988	365	-1.01723317129654E-05	
41.0338068963996	-0.000619506835937506	36.4999999078464	366	-0.000137327253469266	
41.1338068961471	-0.000613403320312497	36.5999999075939	367	0.000193276253412478	
41.2338068958946	-0.000622558593750003	36.6999999073414	368	-0.000259396998444572	
41.3338068956422	-0.000622558593750003	36.7999999070889	369	0.000127154926303774	
41.4338068953897	-0.000619506835937506	36.8999999068365	370	2.54314127232647E-05	
41.5338068951372	-0.000622558593750003	36.999999906584	371	-9.15519558475353E-05	
41.6338068948847	-0.000619506835937506	37.0999999063315	372	0.000101724675914738	
41.7338068946323	-0.000616455078124994	37.199999906079	373	1.01719442682224E-05	
41.8338068943798	-0.000616455078124994	37.2999999058266	374	-2.54314127232647E-05	
41.9338068941273	-0.000622558593750003	37.3999999055741	375	-0.00010172448673984	
42.0338068938748	-0.000622558593750003	37.4999999053216	376	7.12067121639848E-05	
42.1338068936224	-0.000616455078124994	37.5999999050691	377	9.15513737709261E-05	
42.2338068933699	-0.000619506835937506	37.6999999048167	378	-0.000127154737128876	
42.3338068931174	-0.0006256103515625	37.7999999045642	379	-5.59491854801308E-05	
42.4338068928649	-0.000622558593750003	37.8999999043117	380	0.000116984148917254	
42.5338068926125	-0.0006256103515625	37.9999999040592	381	-0.000111898370960262	
42.63380689236	-0.0006256103515625	38.0999999038067	382	4.57766582258046E-05	
42.7338068921075	-0.000622558593750003	38.1999999035543	383	4.57764654129278E-05	
42.833806891855	-0.000622558593750003	38.2999999033018	384	-3.56043274223339E-05	
42.9338068916026	-0.000628662109374997	38.3999999030493	385	-0.000101725650893059	
43.0338068913501	-0.000622558593750003	38.4999999027968	386	0.00018310644372832	
43.1338068910976	-0.000628662109374997	38.5999999025444	387	-0.000203451490961015	
43.2338068908451	-0.000619506835937506	38.6999999022919	388	0.000259400490904227	
43.3338068905927	-0.0006256103515625	38.7999999020394	389	-0.000239054264966398	
43.4338068903402	-0.000628662109374997	38.8999999017869	390	4.57760761491954E-05	
43.5338068900877	-0.0006256103515625	38.9999999015345	391	7.12082619429566E-05	
43.6338068898352	-0.000628662109374997	39.099999901282	392	-0.000101725650893059	
43.7338068895828	-0.000631713867187494	39.1999999010295	393	-1.01721379905939E-05	
43.8338068893303	-0.000628662109374997	39.299999900777	394	8.13794322311878E-05	
43.9338068890778	-0.000628662109374997	39.3999999005246	395	-4.57756868854631E-05	
44.0338068888253	-0.000622558593750003	39.4999999002721	396	0.000122070705401711	
44.1338068885728	-0.0006256103515625	39.5999999000196	397	-0.000127157443785109	
44.2338068883204	-0.000634765625000006	39.6999998997671	398	-0.000111896231828723	
44.3338068880679	-0.000631713867187494	39.7999998995147	399	0.000152586333570071	
44.4338068878154	-0.000619506835937506	39.8999998992622	400	0.000157674643560313	
44.5338068875629	-0.000631713867187494	39.9999998990097	401	-0.000356038217432797	
44.6338068873105	-0.000628662109374997	40.0999998987572	402	0.000239053682889789	
44.733806887058	-0.000634765625000006	40.1999998985048	403	-0.000188189689652063	
44.8338068868055	-0.000628662109374997	40.2999998982523	404	0.000193276253412478	
44.933806886553	-0.000631713867187494	40.3999998979998	405	-0.000147500555613078	
45.0338068863006	-0.000640869140625	40.4999998977473	406	-0.000111897592432797	
45.1338068860481	-0.000637817382812503	40.5999998974949	407	0.000152587497723289	
45.2338068857956	-0.000637817382812503	40.6999998972424	408	-6.61217127344571E-05	
45.3338068855431	-0.000637817382812503	40.7999998969899	409	1.01723317129654E-05	
45.4338068852907	-0.000628662109374997	40.8999998967374	410	0.000167845224495977	
45.5338068850382	-0.000634765625000006	40.999999896485	411	-0.000218706496525556	
45.6338068847857	-0.000634765625000006	41.0999998962325	412	0.000101724675914738	
45.7338068845332	-0.000637817382812503	41.19999989598	413	-7.62934578233399E-05	
45.8338068842808	-0.000634765625000006	41.2999998957275	414	9.15521522983909E-05	
45.9338068840283	-0.000634765625000006	41.399999895475	415	-4.57754940725863E-05	
46.0338068837758	-0.000637817382812503	41.4999998952226	416	-4.57760761491954E-05	
46.1338068835233	-0.000631713867187494	41.5999998949701	417	0.000147499595186673	
46.2338068832709	-0.000631713867187494	41.6999998947176	418	-8.13798178569414E-05	
46.3338068830184	-0.000637817382812503	41.7999998944651	419	-9.15519558475353E-05	
46.4338068827659	-0.000634765625000006	41.8999998942127	420	0.000127155697555281	
46.5338068825134	-0.000637817382812503	41.9999998939602	421	-0.000111896813905332	
46.633806882261	-0.000640869140625	42.0999998937077	422	-1.01733021438122E-05	
46.7338068820085	-0.000631713867187494	42.1999998934552	423	0.000193277024663985	
46.833806881756	-0.000637817382812503	42.2999998932028	424	-0.000228880380745977	
46.9338068815035	-0.000646972656249994	42.3999998929503	425	-6.61228768876754E-05	
47.0338068812511	-0.000634765625000006	42.4999998926978	426	0.000310262345010415	
47.1338068809986	-0.000631713867187494	42.5999998924453	427	-0.000116984730993863	
47.2338068807461	-0.000637817382812503	42.6999998921929	428	-0.000106810264696833	
47.3338068804936	-0.000634765625000006	42.7999998919404	429	0.000137328039272688	
47.4338068802412	-0.000643920898437497	42.8999998916879	430	-0.000223794791963883	
47.5338068799887	-0.000637817382812503	42.9999998914354	431	0.000228882316150703	
47.6338068797362	-0.000637817382812503	43.099999891183	432	-0.000101726036518812	
47.7338068794837	-0.000631713867187494	43.1999998909305	433	0.000132241286337376	
47.8338068792312	-0.000640869140625	43.299999890678	434	-0.000239052707911469	
47.9338068789788	-0.000646972656249994	43.3999998904255	435	1.52579159475863E-05	
48.0338068787263	-0.000640869140625	43.4999998901731	436	0.000152587701450102	
48.1338068784738	-0.000643920898437497	43.5999998899206	437	-0.000147501530591398	
48.2338068782213	-0.000643920898437497	43.6999998896681	438	5.59493782930076E-05	
48.3338068779689	-0.000650024414062506	43.7999998894156	439	-0.000122068762721028	
48.4338068777164	-0.000646972656249994	43.8999998891632	440	0.000127154737128876	
48.5338068774639	-0.000643920898437497	43.9999998889107	441	1.94024796229542E-10	
48.6338068772114	-0.000650024414062506	44.0999998886582	442	-0.000137327253469266	
48.733806876959	-0.000640869140625	44.1999998884057	443	0.000249225238803774	
48.8338068767065	-0.000646972656249994	44.2999998881533	444	-0.000239053872064687	
48.933806876454	-0.000646972656249994	44.3999998879008	445	0.00010172448673984	
49.0338068762015	-0.000643920898437497	44.4999998876483	446	3.56035488948692E-05	
49.1338068759491	-0.000650024414062506	44.5999998873958	447	-0.000147499595186673	
49.2338068756966	-0.000643920898437497	44.6999998871433	448	0.000193276253412478	
49.3338068754441	-0.000646972656249994	44.7999998868909	449	-0.000147500555613078	
49.4338068751916	-0.000640869140625	44.8999998866384	450	0.000167845806572586	
49.5338068749392	-0.000646972656249994	44.9999998863859	451	-0.000193277999642305	
49.6338068746867	-0.000640869140625	45.0999998861334	452	0.000203450137632899	
49.7338068744342	-0.000643920898437497	45.199999885881	453	-0.000147501530591398	
49.8338068741817	-0.000650024414062506	45.2999998856285	454	-5.59470499865711E-05	
49.9338068739293	-0.000643920898437497	45.399999885376	455	0.000172931191627868	
50.0338068736768	-0.000640869140625	45.4999998851235	456	-3.56025811925065E-05	
50.1338068734243	-0.000646972656249994	45.5999998848711	457	-0.000127157254610211	
50.2338068731718	-0.000653076171875003	45.6999998846186	458	-3.05168014165247E-05	
50.3338068729194	-0.000643920898437497	45.7999998843661	459	0.000218707078602165	
50.4338068726669	-0.000646972656249994	45.8999998841136	460	-0.000183103911695071	
50.5338068724144	-0.000640869140625	45.9999998838612	461	0.000178018337464891	
50.6338068721619	-0.000643920898437497	46.0999998836087	462	-0.000137328999699093	
50.7338068719095	-0.000650024414062506	46.1999998833562	463	-5.59470499865711E-05	
50.833806871657	-0.000653076171875003	46.2999998831037	464	5.08577795699239E-06	
50.9338068714045	-0.000650024414062506	46.3999998828513	465	7.12072942405939E-05	
51.033806871152	-0.000646972656249994	46.4999998825988	466	1.01719442682224E-05	
51.1338068708995	-0.000653076171875003	46.5999998823463	467	-0.000137327835545875	
51.2338068706471	-0.000650024414062506	46.6999998820938	468	0.000137328039272688	
51.3338068703946	-0.000650024414062506	46.7999998818414	469	-5.5947824876057E-05	
51.4338068701421	-0.0006561279296875	46.8999998815889	470	-0.000101725068816449	
51.5338068698896	-0.000646972656249994	46.9999998813364	471	0.000239052911638282	
51.6338068696372	-0.000653076171875003	47.0999998810839	472	-0.000239052911638282	
51.7338068693847	-0.000650024414062506	47.1999998808315	473	0.000157673086505383	
51.8338068691322	-0.000653076171875003	47.299999880579	474	-0.000111896813905332	
51.9338068688797	-0.000637817382812503	47.3999998803265	475	0.000325519096804783	
52.0338068686273	-0.000650024414062506	47.499999880074	476	-0.000411985645769164	
52.1338068683748	-0.0006561279296875	47.5999998798216	477	8.1380014307797E-05	
52.2338068681223	-0.000653076171875003	47.6999998795691	478	8.64665707922541E-05	
52.3338068678698	-0.000650024414062506	47.7999998793166	479	-3.88049592459083E-10	
52.4338068676174	-0.000653076171875003	47.8999998790641	480	-8.13794322311878E-05	
52.5338068673649	-0.000653076171875003	47.9999998788117	481	4.57756868854631E-05	
52.6338068671124	-0.000653076171875003	48.0999998785592	482	-1.0172720067203E-05	
52.7338068668599	-0.000646972656249994	48.1999998783067	483	0.000111896231828723	
52.8338068666075	-0.000650024414062506	48.2999998780542	484	-0.000127154737128876	
52.933806866355	-0.000653076171875003	48.3999998778017	485	-1.94024796229542E-10	
53.0338068661025	-0.000653076171875003	48.4999998775493	486	2.54308306466555E-05	
53.13380686585	-0.0006561279296875	48.5999998772968	487	-6.61217127344571E-05	
53.2338068655976	-0.0006561279296875	48.6999998770443	488	3.56041309714783E-05	
53.3338068653451	-0.0006561279296875	48.7999998767918	489	-1.01725263448316E-05	
53.4338068650926	-0.000653076171875003	48.8999998765394	490	5.59489890292753E-05	
53.5338068648401	-0.000653076171875003	48.9999998762869	491	-3.56043274223339E-05	
53.6338068645877	-0.000659179687499997	49.0999998760344	492	-0.000101725650893059	
53.7338068643352	-0.000643920898437497	49.1999998757819	493	0.000350951857399195	
53.8338068640827	-0.000659179687499997	49.2999998755295	494	-0.00047810678370297	
53.9338068638302	-0.000653076171875003	49.399999875277	495	0.000340779137331992	
54.0338068635778	-0.000653076171875003	49.4999998750245	496	-0.000122070894576609	
54.1338068633253	-0.0006561279296875	49.599999874772	497	-3.56041309714783E-05	
54.2338068630728	-0.0006561279296875	49.6999998745196	498	3.56041309714783E-05	
54.3338068628203	-0.000662231445312494	49.7999998742671	499	-0.000122070501674898	
54.4338068625678	-0.000653076171875003	49.8999998740146	500	0.000239054075791501	
54.5338068623154	-0.000659179687499997	49.9999998737621	501	-0.000239054847043008	
54.6338068620629	-0.000659179687499997	50.0999998735097	502	0.000101726036518812	
54.7338068618104	-0.000662231445312494	50.1999998732572	503	-7.6293850725051E-05	
54.8338068615579	-0.0006561279296875	50.2999998730047	504	0.000147500948514789	
54.9338068613055	-0.000659179687499997	50.3999998727522	505	-0.000137328999699093	
55.033806861053	-0.000665283203125006	50.4999998724998	506	-5.59470499865711E-05	
55.1338068608005	-0.000662231445312494	50.5999998722473	507	0.000116982206236571	
55.233806860548	-0.000662231445312494	50.6999998719948	508	-5.59487962163985E-05	
55.3338068602956	-0.000659179687499997	50.7999998717423	509	6.61209342069924E-05	
55.4338068600431	-0.000668334960937503	50.8999998714899	510	-0.00020344858057797	
55.5338068597906	-0.000653076171875003	50.9999998712374	511	0.00039672598359175	
55.6338068595381	-0.000665283203125006	51.0999998709849	512	-0.000432330503826961	
55.7338068592857	-0.000659179687499997	51.1999998707324	513	0.000305174413369969	
55.8338068590332	-0.000662231445312494	51.29999987048	514	-0.000167845617397688	
55.9338068587807	-0.0006561279296875	51.3999998702275	515	0.000167845806572586	
56.0338068585282	-0.000668334960937503	51.499999869975	516	-0.000305174413369969	
56.1338068582758	-0.000668334960937503	51.5999998697225	517	0.000162759257364087	
56.2338068580233	-0.000665283203125006	51.69999986947	518	1.52588854689384E-05	
56.3338068577708	-0.000662231445312494	51.7999998692176	519	2.0344470613054E-05	
56.4338068575183	-0.000665283203125006	51.8999998689651	520	-8.13788501545787E-05	
56.5338068572659	-0.000662231445312494	51.9999998687126	521	0.000101723708212376	
56.6338068570134	-0.000662231445312494	52.0999998684601	522	-4.57762689620722E-05	
56.7338068567609	-0.00067138671875	52.1999998682077	523	-0.000157673479407094	
56.8338068565084	-0.000668334960937503	52.2999998679552	524	0.000162760028615594	
56.933806856256	-0.00067138671875	52.3999998677027	525	-0.000122070705401711	
57.0338068560035	-0.000662231445312494	52.4999998674502	526	0.00021362207189668	
57.133806855751	-0.000668334960937503	52.5999998671978	527	-0.000228880380745977	
57.2338068554985	-0.000662231445312494	52.6999998669453	528	0.000213620529393665	
57.3338068552461	-0.000665283203125006	52.7999998666928	529	-0.000147499595186673	
57.4338068549936	-0.00067138671875	52.8999998664403	530	-5.59491854801308E-05	
57.5338068547411	-0.000665283203125006	52.9999998661879	531	0.000172933141584508	
57.6338068544886	-0.000674438476562497	53.0999998659354	532	-0.000259399123024195	
57.7338068542362	-0.00067138671875	53.1999998656829	533	0.000183105861651711	
57.8338068539837	-0.00067138671875	53.2999998654304	534	-6.61217127344571E-05	
57.9338068537312	-0.000668334960937503	53.399999865178	535	6.61215162836015E-05	
58.0338068534787	-0.000662231445312494	53.4999998649255	536	7.62921044952236E-05	
58.1338068532262	-0.00067138671875	53.599999864673	537	-0.000228880191571079	
58.2338068529738	-0.00067138671875	53.6999998644205	538	0.000127155901282094	
58.3338068527213	-0.000674438476562497	53.7999998641681	539	-8.64663743413985E-05	
58.4338068524688	-0.00067138671875	53.8999998639156	540	9.15533164516091E-05	
58.5338068522163	-0.00067138671875	53.9999998636631	541	-4.57766582258046E-05	
58.6338068519639	-0.000668334960937503	54.0999998634106	542	6.61215162836015E-05	
58.7338068517114	-0.00067138671875	54.1999998631582	543	-9.15533164516091E-05	
58.8338068514589	-0.000680541992187506	54.2999998629057	544	-0.000122068762721028	
58.9338068512064	-0.000677490234374994	54.3999998626532	545	0.000152586333570071	
59.033806850954	-0.00067138671875	54.4999998624007	546	4.57766582258046E-05	
59.1338068507015	-0.000674438476562497	54.5999998621483	547	-0.000116984148917254	
59.233806850449	-0.000662231445312494	54.6999998618958	548	0.000279743777355179	
59.3338068501965	-0.000677490234374994	54.7999998616433	549	-0.000432331493357196	
59.4338068499441	-0.00067138671875	54.8999998613908	550	0.000330606038914993	
59.5338068496916	-0.000674438476562497	54.9999998611383	551	-0.000178018919541501	
59.6338068494391	-0.000674438476562497	55.0999998608859	552	5.59493782930076E-05	
59.7338068491866	-0.000668334960937503	55.1999998606334	553	0.000101725650893059	
59.8338068489342	-0.000683593750000003	55.2999998603809	554	-0.000350951857399195	
59.9338068486817	-0.00067138671875	55.3999998601284	555	0.000422157783759758	
60.0338068484292	-0.00067138671875	55.499999859876	556	-0.000193276835489087	
60.1338068481767	-0.000680541992187506	55.5999998596235	557	-0.000127155508380383	
60.2338068479243	-0.000683593750000003	55.699999859371	558	5.0862436182797E-05	
60.3338068476718	-0.000677490234374994	55.7999998591185	559	0.000116982206236571	
60.4338068474193	-0.000683593750000003	55.8999998588661	560	-0.000193276253412478	
60.5338068471668	-0.000683593750000003	55.9999998586136	561	9.15515702217817E-05	
60.6338068469144	-0.000674438476562497	56.0999998583611	562	0.00014750036643818	
60.7338068466619	-0.000677490234374994	56.1999998581086	563	-0.000162759053637274	
60.8338068464094	-0.0006866455078125	56.2999998578562	564	-0.000101725068816449	
60.9338068461569	-0.000677490234374994	56.3999998576037	565	0.000264483940554783	
61.0338068459045	-0.000674438476562497	56.4999998573512	566	-8.13798178569414E-05	
61.133806845652	-0.0006866455078125	56.5999998570987	567	-0.000228880191571079	
61.2338068453995	-0.000683593750000003	56.6999998568463	568	0.000208535915589891	
61.333806845147	-0.000680541992187506	56.7999998565938	569	-2.03452455025399E-05	
61.4338068448945	-0.000683593750000003	56.8999998563413	570	-8.13794322311878E-05	
61.5338068446421	-0.000680541992187506	56.9999998560888	571	0.000101724675914738	
61.6338068443896	-0.000683593750000003	57.0999998558364	572	-0.00010172448673984	
61.7338068441371	-0.000680541992187506	57.1999998555839	573	0.000101724675914738	
61.8338068438846	-0.000689697265624997	57.2999998553314	574	-0.000213622464798391	
61.9338068436322	-0.000677490234374994	57.3999998550789	575	0.000340778758982196	
62.0338068433797	-0.000680541992187506	57.4999998548265	576	-0.000228880569920875	
62.1338068431272	-0.000683593750000003	57.599999854574	577	2.0344858057797E-05	
62.2338068428747	-0.0006866455078125	57.6999998543215	578	-3.05181602016091E-05	
62.3338068426223	-0.000680541992187506	57.799999854069	579	0.000137329581775703	
62.4338068423698	-0.000677490234374994	57.8999998538166	580	-2.54321876127506E-05	
62.5338068421173	-0.000689697265624997	57.9999998535641	581	-0.000239053289988078	
62.6338068418648	-0.0006866455078125	58.0999998533116	582	0.000208536686841398	
62.7338068416124	-0.0006866455078125	58.1999998530591	583	-7.6294039899949E-05	
62.8338068413599	-0.000683593750000003	58.2999998528067	584	6.61215162836015E-05	
62.9338068411074	-0.000692749023437494	58.3999998525542	585	-0.000203451301786117	
63.0338068408549	-0.000689697265624997	58.4999998523017	586	0.000172932748682797	
63.1338068406025	-0.000683593750000003	58.5999998520492	587	4.57772403024137E-05	
63.23380684035	-0.000689697265624997	58.6999998517967	588	-0.000172933912836015	
63.3338068400975	-0.000683593750000003	58.7999998515443	589	0.000203451490961015	
63.433806839845	-0.000683593750000003	58.8999998512918	590	-9.15535129024647E-05	
63.5338068395926	-0.0006866455078125	58.9999998510393	591	-3.56041309714783E-05	
63.6338068393401	-0.0006866455078125	59.0999998507868	592	3.56041309714783E-05	
63.7338068390876	-0.000683593750000003	59.1999998505344	593	4.57764654129278E-05	
63.8338068388351	-0.000692749023437494	59.2999998502819	594	-0.000203451301786117	
63.9338068385827	-0.0006866455078125	59.3999998500294	595	0.000228881734074093	
64.0338068383302	-0.000692749023437494	59.4999998497769	596	-0.000213623046875	
64.1338068380777	-0.000689697265624997	59.5999998495245	597	0.000147501137689687	
64.2338068378252	-0.000689697265624997	59.699999849272	598	-5.59482141397893E-05	
64.3338068375728	-0.000692749023437494	59.7999998490195	599	-4.57762689620722E-05	
64.4338068373203	-0.000689697265624997	59.899999848767	600	9.15519558475353E-05	
64.5338068370678	-0.000689697265624997	59.9999998485146	601	-4.57756868854631E-05	
64.6338068368153	-0.000692749023437494	60.0999998482621	602	-4.57762689620722E-05	
64.7338068365628	-0.000689697265624997	60.1999998480096	603	9.15519558475353E-05	
64.8338068363104	-0.000689697265624997	60.2999998477571	604	-4.57756868854631E-05	
64.9338068360579	-0.000695800781250006	60.3999998475047	605	-0.000101723708212376	
65.0338068358054	-0.0006866455078125	60.4999998472522	606	0.000239052707911469	
65.1338068355529	-0.000689697265624997	60.5999998469997	607	-0.000183104886673391	
65.2338068353005	-0.000683593750000003	60.6999998467472	608	0.000178019690793008	
65.333806835048	-0.000692749023437494	60.7999998464948	609	-0.000249227945460007	
65.4338068347955	-0.000689697265624997	60.8999998462423	610	0.000183105279575102	
65.533806834543	-0.000692749023437494	60.9999998459898	611	-0.000122069730423391	
65.6338068342906	-0.000689697265624997	61.0999998457373	612	0.00010172448673984	
65.7338068340381	-0.000698852539062503	61.1999998454849	613	-0.000213621111470275	
65.8338068337856	-0.000695800781250006	61.2999998452324	614	0.000172931584529579	
65.9338068335331	-0.000695800781250006	61.3999998449799	615	-6.61203521303833E-05	
66.0338068332807	-0.000704956054687497	61.4999998447274	616	-0.000157674061483704	
66.1338068330282	-0.000695800781250006	61.599999844475	617	0.000274658785201609	
66.2338068327757	-0.000692749023437494	61.6999998442225	618	-8.13813749118708E-05	
66.3338068325232	-0.000689697265624997	61.79999984397	619	5.08626289956737E-05	
66.4338068322708	-0.0006866455078125	61.8999998437175	620	3.05181602016091E-05	
66.5338068320183	-0.000698852539062503	61.999999843465	621	-0.000249226024607196	
66.6338068317658	-0.000692749023437494	62.0999998432126	622	0.00026448315475136	
66.7338068315133	-0.000695800781250006	62.1999998429601	623	-0.000167844642419368	
66.8338068312609	-0.000704956054687497	62.2999998427076	624	-0.000111898174509406	
66.9338068310084	-0.000695800781250006	62.3999998424551	625	0.000264486443484202	
67.0338068307559	-0.000695800781250006	62.4999998422027	626	-0.000137328810524195	
67.1338068305034	-0.000695800781250006	62.5999998419502	627	3.05179673887324E-05	
67.233806830251	-0.000692749023437494	62.6999998416977	628	5.5947824876057E-05	
67.3338068299985	-0.000695800781250006	62.7999998414452	629	-9.15513737709261E-05	
67.433806829746	-0.000698852539062503	62.8999998411928	630	-1.0172720067203E-05	
67.5338068294935	-0.000698852539062503	62.9999998409403	631	2.54308306466555E-05	
67.6338068292411	-0.000695800781250006	63.0999998406878	632	4.57762689620722E-05	
67.7338068289886	-0.000698852539062503	63.1999998404353	633	-9.15519558475353E-05	
67.8338068287361	-0.000695800781250006	63.2999998401829	634	0.000101724675914738	
67.9338068284836	-0.000701904296875	63.3999998399304	635	-0.000157673479407094	
68.0338068282312	-0.000698852539062503	63.4999998396779	636	0.000137328999699093	
68.1338068279787	-0.000701904296875	63.5999998394254	637	-0.000111898370960262	
68.2338068277262	-0.000704956054687497	63.699999839173	638	-1.01723317129654E-05	
68.3338068274737	-0.000698852539062503	63.7999998389205	639	0.000137329785502516	
68.4338068272212	-0.000695800781250006	63.899999838668	640	-2.54319947998738E-05	
68.5338068269688	-0.000701904296875	63.9999998384155	641	-0.000127155901282094	
68.6338068267163	-0.000695800781250006	64.0999998381631	642	0.000193277999642305	
68.7338068264638	-0.000704956054687497	64.1999998379106	643	-0.000259399123024195	
68.8338068262113	-0.000689697265624997	64.2999998376581	644	0.000406900275265798	
68.9338068259589	-0.000704956054687497	64.3999998374056	645	-0.000488279300043359	
69.0338068257064	-0.000698852539062503	64.4999998371532	646	0.000340779137331992	
69.1338068254539	-0.000698852539062503	64.5999998369007	647	-0.000122070894576609	
69.2338068252014	-0.000704956054687497	64.6999998366482	648	-9.15531200007536E-05	
69.333806824949	-0.000701904296875	64.7999998363957	649	0.000127157443785109	
69.4338068246965	-0.000711059570312506	64.8999998361433	650	-0.000223794602788985	
69.533806824444	-0.000692749023437494	64.9999998358908	651	0.000452674779808149	
69.6338068241915	-0.000695800781250006	65.0999998356383	652	-0.000300087296636775	
69.7338068239391	-0.000701904296875	65.1999998353858	653	-1.52592747326707E-05	
69.8338068236866	-0.000701904296875	65.2999998351333	654	6.103515625E-05	
69.9338068234341	-0.000701904296875	65.3999998348809	655	-2.03450526896631E-05	
70.0338068231816	-0.000708007812499994	65.4999998346284	656	-0.000111897978058551	
70.1338068229292	-0.000692749023437494	65.5999998343759	657	0.000350950489519164	
70.2338068226767	-0.000701904296875	65.6999998341234	658	-0.000366209394996986	
70.3338068224242	-0.000701904296875	65.799999833871	659	0.000157673479407094	
70.4338068221717	-0.000701904296875	65.8999998336185	660	-3.05173834931338E-05	
70.5338068219193	-0.000708007812499994	65.999999833366	661	-0.000111897978058551	
70.6338068216668	-0.000708007812499994	66.0999998331135	662	7.12070977897383E-05	
70.7338068214143	-0.000701904296875	66.1999998328611	663	9.15525379241444E-05	
70.8338068211618	-0.000704956054687497	66.2999998326086	664	-0.000127156483358704	
70.9338068209094	-0.000701904296875	66.3999998323561	665	0.000111898370960262	
71.0338068206569	-0.000708007812499994	66.4999998321036	666	-0.000157674643560313	
71.1338068204044	-0.000704956054687497	66.5999998318512	667	0.000137328621349297	
71.2338068201519	-0.000704956054687497	66.6999998315987	668	-5.59482141397893E-05	
71.3338068198995	-0.000704956054687497	66.7999998313462	669	1.0172720067203E-05	
71.433806819647	-0.000704956054687497	66.8999998310937	670	1.94024796229542E-10	
71.5338068193945	-0.000704956054687497	66.9999998308413	671	1.94024796229542E-10	
71.633806819142	-0.000704956054687497	67.0999998305888	672	1.94024796229542E-10	
71.7338068188895	-0.000704956054687497	67.1999998303363	673	1.94024796229542E-10	
71.8338068186371	-0.000701904296875	67.2999998300838	674	5.59491854801308E-05	
71.9338068183846	-0.000704956054687497	67.3999998298314	675	-9.15531200007536E-05	
72.0338068181321	-0.000704956054687497	67.4999998295789	676	4.57768510386813E-05	
72.1338068178796	-0.000701904296875	67.5999998293264	677	4.57766582258046E-05	
72.2338068176272	-0.000711059570312506	67.6999998290739	678	-0.00020344955555629	
72.3338068173747	-0.000711059570312506	67.7999998288215	679	0.000116983952466398	
72.4338068171222	-0.000701904296875	67.899999828569	680	0.000137328417622484	
72.5338068168697	-0.000711059570312506	67.9999998283165	681	-0.000274656456895173	
72.6338068166173	-0.000714111328125003	68.099999828064	682	8.13798178569414E-05	
72.7338068163648	-0.000708007812499994	68.1999998278116	683	0.000116982206236571	
72.8338068161123	-0.000708007812499994	68.2999998275591	684	-8.13798178569414E-05	
72.9338068158598	-0.000711059570312506	68.3999998273066	685	-3.560296681826E-05	
73.0338068156074	-0.000708007812499994	68.4999998270541	686	9.15513737709261E-05	
73.1338068153549	-0.000711059570312506	68.5999998268017	687	-0.000101723708212376	
73.2338068151024	-0.000708007812499994	68.6999998265492	688	0.000101723708212376	
73.3338068148499	-0.000714111328125003	68.7999998262967	689	-0.000157672693603672	
73.4338068145975	-0.0007171630859375	68.8999998260442	690	2.54300539381802E-05	
73.533806814345	-0.0007171630859375	68.9999998257917	691	1.52592747326707E-05	
73.6338068140925	-0.0007171630859375	69.0999998255393	692	-1.01725263448316E-05	
73.73380681384	-0.000714111328125003	69.1999998252868	693	5.59489890292753E-05	
73.8338068135876	-0.000708007812499994	69.2999998250343	694	7.62921044952236E-05	
73.9338068133351	-0.000714111328125003	69.3999998247818	695	-0.000172931191627868	
74.0338068130826	-0.000714111328125003	69.4999998245294	696	9.15515702217817E-05	
74.1338068128301	-0.000711059570312506	69.5999998242769	697	3.56039381586015E-05	
74.2338068125777	-0.0007171630859375	69.6999998240244	698	-0.000147500948514789	
74.3338068123252	-0.000714111328125003	69.7999998237719	699	0.000137328999699093	
74.4338068120727	-0.0007171630859375	69.8999998235195	700	-0.000111898370960262	
74.5338068118202	-0.0007171630859375	69.999999823267	701	4.57766582258046E-05	
74.6338068115678	-0.000711059570312506	70.0999998230145	702	0.000101725454442203	
74.7338068113153	-0.0007171630859375	70.199999822762	703	-0.000183105075848289	
74.8338068110628	-0.000708007812499994	70.2999998225096	704	0.000259397958870977	
74.9338068108103	-0.000714111328125003	70.3999998222571	705	-0.000239052911638282	
75.0338068105578	-0.0007171630859375	70.4999998220046	706	4.57751048088539E-05	
75.1338068103054	-0.000720214843749997	70.5999998217521	707	-4.06897161155939E-05	
75.2338068100529	-0.0007171630859375	70.6999998214997	708	8.13807928352617E-05	
75.3338068098004	-0.000711059570312506	70.7999998212472	709	6.61213198327459E-05	
75.4338068095479	-0.000711059570312506	70.8999998209947	710	-6.10345741733909E-05	
75.5338068092955	-0.0007171630859375	70.9999998207422	711	-9.15525379241444E-05	
75.633806809043	-0.000720214843749997	71.0999998204898	712	1.52584980241954E-05	
75.7338068087905	-0.000714111328125003	71.1999998202373	713	0.000127157254610211	
75.833806808538	-0.000720214843749997	71.2999998199848	714	-0.00019327896006871	
75.9338068082856	-0.0007171630859375	71.3999998197323	715	0.000147502505569719	
76.0338068080331	-0.000723266601562494	71.4999998194799	716	-0.000167847159900703	
76.1338068077806	-0.000711059570312506	71.5999998192274	717	0.000305175577523187	
76.2338068075281	-0.000720214843749997	71.6999998189749	718	-0.000330606620991603	
76.3338068072757	-0.0007171630859375	71.7999998187224	719	0.000203450908884406	
76.4338068070232	-0.000714111328125003	71.89999981847	720	-1.0172720067203E-05	
76.5338068067707	-0.000723266601562494	71.9999998182175	721	-0.000193278770893812	
76.6338068065182	-0.000723266601562494	72.099999817965	722	0.000116983756015543	
76.7338068062658	-0.000720214843749997	72.1999998177125	723	2.54310234595323E-05	
76.8338068060133	-0.000720214843749997	72.29999981746	724	-3.56031632691156E-05	
76.9338068057608	-0.000723266601562494	72.3999998172076	725	-4.57762689620722E-05	
77.0338068055083	-0.000720214843749997	72.4999998169551	726	9.15519558475353E-05	
77.1338068052559	-0.000726318359375006	72.5999998167026	727	-0.000157672111527063	
77.2338068050034	-0.000726318359375006	72.6999998164501	728	8.13798178569414E-05	
77.3338068047509	-0.000720214843749997	72.7999998161977	729	9.15519558475353E-05	
77.4338068044984	-0.000726318359375006	72.8999998159452	730	-0.000183103140443563	
77.533806804246	-0.000720214843749997	72.9999998156927	731	0.00020344858057797	
77.6338068039935	-0.000720214843749997	73.0999998154402	732	-9.15515702217817E-05	
77.733806803741	-0.000723266601562494	73.1999998151878	733	-3.56039381586015E-05	
77.8338068034885	-0.000723266601562494	73.2999998149353	734	3.560296681826E-05	
77.9338068032361	-0.000720214843749997	73.3999998146828	735	4.57760761491954E-05	
78.0338068029836	-0.000723266601562494	73.4999998144303	736	-9.15521522983909E-05	
78.1338068027311	-0.000726318359375006	73.5999998141779	737	-1.01719442682224E-05	
78.2338068024786	-0.0007171630859375	73.6999998139254	738	0.000193276835489087	
78.3338068022262	-0.000723266601562494	73.7999998136729	739	-0.000228881355724297	
78.4338068019737	-0.000720214843749997	73.8999998134204	740	0.000157673479407094	
78.5338068017212	-0.000729370117187503	73.999999813168	741	-0.000223793627810664	
78.6338068014687	-0.000726318359375006	74.0999998129155	742	0.000172931584529579	
78.7338068012162	-0.000726318359375006	74.199999812663	743	-6.61203521303833E-05	
78.8338068009638	-0.000726318359375006	74.2999998124105	744	1.01729137895745E-05	
78.9338068007113	-0.000723266601562494	74.3999998121581	745	5.5947824876057E-05	
79.0338068004588	-0.000735473632812497	74.4999998119056	746	-0.000259398337220773	
79.1338068002063	-0.000726318359375006	74.5999998116531	747	0.000320434657623991	
79.2338067999539	-0.000741577148437506	74.6999998114006	748	-0.000427244551246986	
79.3338067997014	-0.000729370117187503	74.7999998111482	749	0.000432330911280587	
79.4338067994489	-0.000729370117187503	74.8999998108957	750	-0.000193277795915492	
79.5338067991964	-0.000732421875	74.9999998106432	751	-1.52592747326707E-05	
79.633806798944	-0.000729370117187503	75.0999998103907	752	9.15531200007536E-05	
79.7338067986915	-0.000729370117187503	75.1999998101383	753	-4.57768510386813E-05	
79.833806798439	-0.000723266601562494	75.2999998098858	754	0.000122068762721028	
79.9338067981865	-0.000738525390624994	75.3999998096333	755	-0.000350950693245977	
80.0338067979341	-0.000726318359375006	75.4999998093808	756	0.000422158947912976	
80.1338067976816	-0.000735473632812497	75.5999998091283	757	-0.000361123995389789	
80.2338067974291	-0.000729370117187503	75.6999998088759	758	0.000259399908827618	
80.3338067971766	-0.000729370117187503	75.7999998086234	759	-0.000101726036518812	
80.4338067969242	-0.000732421875	75.8999998083709	760	-3.56041309714783E-05	
80.5338067966717	-0.000729370117187503	75.9999998081184	761	9.15531200007536E-05	
80.6338067964192	-0.000738525390624994	76.099999807866	762	-0.000213623818126507	
80.7338067961667	-0.000726318359375006	76.1999998076135	763	0.000340779719408602	
80.8338067959143	-0.000726318359375006	76.299999807361	764	-0.000172932166606188	
80.9338067956618	-0.000720214843749997	76.3999998071085	765	0.00015258691564668	
81.0338067954093	-0.0007171630859375	76.4999998068561	766	-1.52577222252148E-05	
81.1338067951568	-0.000732421875	76.5999998066036	767	-0.000295002682833001	
81.2338067949044	-0.000723266601562494	76.6999998063511	768	0.00035603647120297	
81.3338067946519	-0.000729370117187503	76.7999998060986	769	-0.000269570300588384	
81.4338067943994	-0.000735473632812497	76.8999998058462	770	-1.01738842204213E-05	
81.5338067941469	-0.000729370117187503	76.9999998055937	771	0.000162761585670523	
81.6338067938945	-0.000714111328125003	77.0999998053412	772	0.000188189893378876	
81.733806793642	-0.000729370117187503	77.1999998050887	773	-0.000437417067587376	
81.8338067933895	-0.000723266601562494	77.2999998048363	774	0.000340777187375352	
81.933806793137	-0.000729370117187503	77.3999998045838	775	-0.00023396615870297	
82.0338067928845	-0.000726318359375006	77.4999998043313	776	0.000147500555613078	
82.1338067926321	-0.000720214843749997	77.5999998040788	777	5.59486034035217E-05	
82.2338067923796	-0.000729370117187503	77.6999998038264	778	-0.00022887960949447	
82.3338067921271	-0.000723266601562494	77.7999998035739	779	0.000239051354583353	
82.4338067918746	-0.000723266601562494	77.8999998033214	780	-0.000101724675914738	
82.5338067916222	-0.000732421875	77.9999998030689	781	-0.000147500948514789	
82.6338067913697	-0.000720214843749997	78.0999998028165	782	0.000330605456838384	
82.7338067911172	-0.000726318359375006	78.199999802564	783	-0.000284828012809157	
82.8338067908647	-0.000720214843749997	78.2999998023115	784	0.000223793627810664	
82.9338067906123	-0.000726318359375006	78.399999802059	785	-0.00020344799850136	
83.0338067903598	-0.000729370117187503	78.4999998018066	786	3.56031632691156E-05	
83.1338067901073	-0.000726318359375006	78.5999998015541	787	7.12072942405939E-05	
83.2338067898548	-0.000732421875	78.6999998013016	788	-0.000157673479407094	
83.3338067896024	-0.000720214843749997	78.7999998010491	789	0.000305174413369969	
83.4338067893499	-0.000723266601562494	78.8999998007967	790	-0.000218708242755383	
83.5338067890974	-0.000732421875	78.9999998005442	791	-9.15525379241444E-05	
83.6338067888449	-0.000732421875	79.0999998002917	792	9.66385123319924E-05	
83.7338067885925	-0.000726318359375006	79.1999998000392	793	8.13805963844061E-05	
83.83380678834	-0.000726318359375006	79.2999997997867	794	-7.12070977897383E-05	
83.9338067880875	-0.000732421875	79.3999997995343	795	-9.15525379241444E-05	
84.033806787835	-0.000732421875	79.4999997992818	796	7.12074906914495E-05	
84.1338067875826	-0.000726318359375006	79.5999997990293	797	9.15529308258556E-05	
84.2338067873301	-0.000726318359375006	79.6999997987768	798	-7.12070977897383E-05	
84.3338067870776	-0.000729370117187503	79.7999997985244	799	-3.56035488948692E-05	
84.4338067868251	-0.000726318359375006	79.8999997982719	800	9.15521522983909E-05	
84.5338067865727	-0.000729370117187503	79.9999997980194	801	-0.00010172448673984	
84.6338067863202	-0.000732421875	80.0999997977669	802	-1.01733021438122E-05	
84.7338067860677	-0.000723266601562494	80.1999997975145	803	0.000193277024663985	
84.8338067858152	-0.000726318359375006	80.299999797262	804	-0.000172931395354681	
84.9338067855628	-0.000732421875	80.3999997970095	805	-4.57766582258046E-05	
85.0338067853103	-0.000723266601562494	80.499999796757	806	0.000228880569920875	
85.1338067850578	-0.000732421875	80.5999997965046	807	-0.000295001897029579	
85.2338067848053	-0.000732421875	80.6999997962521	808	0.000137328417622484	
85.3338067845528	-0.000726318359375006	80.7999997959996	809	8.13805963844061E-05	
85.4338067843004	-0.000732421875	80.8999997957471	810	-0.000183105075848289	
85.5338067840479	-0.000723266601562494	80.9999997954947	811	0.000259397958870977	
85.6338067837954	-0.000729370117187503	81.0999997952422	812	-0.000239052911638282	
85.7338067835429	-0.000732421875	81.1999997949897	813	4.57751048088539E-05	
85.8338067832905	-0.000726318359375006	81.2999997947372	814	0.000127157254610211	
85.933806783038	-0.000726318359375006	81.3999997944848	815	-8.13796286820434E-05	
86.0338067827855	-0.000723266601562494	81.4999997942323	816	7.62928757467307E-05	
86.133806782533	-0.000732421875	81.5999997939798	817	-0.000203449351829477	
86.2338067822806	-0.000723266601562494	81.6999997937273	818	0.00028482879861258	
86.3338067820281	-0.000729370117187503	81.7999997934749	819	-0.000249225238803774	
86.4338067817756	-0.000723266601562494	81.8999997932224	820	0.000213620529393665	
86.5338067815231	-0.000726318359375006	81.9999997929699	821	-0.000147499595186673	
86.6338067812707	-0.000726318359375006	82.0999997927174	822	5.59487962163985E-05	
86.7338067810182	-0.000732421875	82.199999792465	823	-0.000122069926874246	
86.8338067807657	-0.000723266601562494	82.2999997922125	824	0.000239052911638282	
86.9338067805132	-0.000726318359375006	82.39999979196	825	-0.000183103911695071	
87.0338067802608	-0.000738525390624994	82.4999997917075	826	-0.000157674643560313	
87.1338067800083	-0.000732421875	82.599999791455	827	0.000244140232098289	
87.2338067797558	-0.000729370117187503	82.6999997912026	828	-5.59486034035217E-05	
87.3338067795033	-0.000726318359375006	82.7999997909501	829	4.06897161155939E-05	
87.4338067792509	-0.000732421875	82.8999997906976	830	-0.000137328417622484	
87.5338067789984	-0.000732421875	82.9999997904451	831	8.1380014307797E-05	
87.6338067787459	-0.000729370117187503	83.0999997901927	832	3.56039381586015E-05	
87.7338067784934	-0.000732421875	83.1999997899402	833	-9.15533164516091E-05	
87.833806778241	-0.000735473632812497	83.2999997896877	834	-1.01723317129654E-05	
87.9338067779885	-0.000729370117187503	83.3999997894352	835	0.000137329785502516	
88.033806777736	-0.000726318359375006	83.4999997891828	836	-2.54319947998738E-05	
88.1338067774835	-0.000732421875	83.5999997889303	837	-0.000127155901282094	
88.2338067772311	-0.000732421875	83.6999997886778	838	8.1380014307797E-05	
88.3338067769786	-0.000735473632812497	83.7999997884253	839	-7.6294039899949E-05	
88.4338067767261	-0.000729370117187503	83.8999997881729	840	0.000147502301842906	
88.5338067764736	-0.000729370117187503	83.9999997879204	841	-8.13809820101596E-05	
88.6338067762211	-0.000732421875	84.0999997876679	842	-3.56041309714783E-05	
88.7338067759687	-0.000735473632812497	84.1999997874154	843	-2.0344858057797E-05	
88.8338067757162	-0.000741577148437506	84.299999787163	844	-8.64646281115711E-05	
88.9338067754637	-0.000735473632812497	84.3999997869105	845	0.000172931191627868	
89.0338067752112	-0.000732421875	84.499999786658	846	-3.56025811925065E-05	
89.1338067749588	-0.000741577148437506	84.5999997864055	847	-0.000183104697498493	
89.2338067747063	-0.000738525390624994	84.6999997861531	848	0.000172931395354681	
89.3338067744538	-0.000738525390624994	84.7999997859006	849	-6.61213198327459E-05	
89.4338067742013	-0.000729370117187503	84.8999997856481	850	0.000178018919541501	
89.5338067739489	-0.000738525390624994	84.9999997853956	851	-0.000274658785201609	
89.6338067736964	-0.000735473632812497	85.0999997851432	852	0.000193277795915492	
89.7338067734439	-0.000735473632812497	85.1999997848907	853	-6.61207377561368E-05	
89.8338067731914	-0.000738525390624994	85.2999997846382	854	-4.57762689620722E-05	
89.933806772939	-0.000738525390624994	85.3999997843857	855	3.560296681826E-05	
90.0338067726865	-0.000738525390624994	85.4999997841333	856	-1.01729137895745E-05	
90.133806772434	-0.000741577148437506	85.5999997838808	857	-5.5947824876057E-05	
90.2338067721815	-0.000738525390624994	85.6999997836283	858	9.15513737709261E-05	
90.3338067719291	-0.000735473632812497	85.7999997833758	859	1.0172720067203E-05	
90.4338067716766	-0.000744628906250003	85.8999997831233	860	-0.000193276253412478	
90.5338067714241	-0.000744628906250003	85.9999997828709	861	0.000116982591862325	
90.6338067711716	-0.000744628906250003	86.0999997826184	862	-3.0517578125E-05	
90.7338067709192	-0.000744628906250003	86.1999997823659	863	-1.94024796229542E-10	
90.8338067706667	-0.000744628906250003	86.2999997821134	864	-1.94024796229542E-10	
90.9338067704142	-0.000741577148437506	86.399999781861	865	5.59487962163985E-05	
91.0338067701617	-0.000744628906250003	86.4999997816085	866	-9.15519558475353E-05	
91.1338067699093	-0.0007476806640625	86.599999781356	867	-1.01733021438122E-05	
91.2338067696568	-0.000741577148437506	86.6999997811035	868	0.000137329581775703	
91.3338067694043	-0.000744628906250003	86.7999997808511	869	-0.000137328621349297	
91.4338067691518	-0.0007476806640625	86.8999997805986	870	-7.76099184918166E-10	
91.5338067688994	-0.000744628906250003	86.9999997803461	871	8.13805963844061E-05	
91.6338067686469	-0.0007476806640625	87.0999997800936	872	-0.000101725840067957	
91.7338067683944	-0.000744628906250003	87.1999997798412	873	0.000101725650893059	
91.8338067681419	-0.000750732421874997	87.2999997795887	874	-0.000157674832735211	
91.9338067678895	-0.000750732421874997	87.3999997793362	875	8.13809820101596E-05	
92.033806767637	-0.000741577148437506	87.4999997790837	876	0.000147502112668008	
92.1338067673845	-0.0007476806640625	87.5999997788313	877	-0.000218709217733704	
92.233806767132	-0.000744628906250003	87.6999997785788	878	0.000157674061483704	
92.3338067668795	-0.000750732421874997	87.7999997783263	879	-0.000167847363627516	
92.4338067666271	-0.000744628906250003	87.8999997780738	880	0.00019327896006871	
92.5338067663746	-0.000738525390624994	87.9999997778214	881	2.03429171961034E-05	
92.6338067661221	-0.000756835937500006	88.0999997775689	882	-0.000386553088901564	
92.7338067658696	-0.000750732421874997	88.1999997773164	883	0.000345863751135767	
92.8338067656172	-0.000738525390624994	88.2999997770639	884	9.15529308258556E-05	
92.9338067653647	-0.000741577148437506	88.3999997768115	885	-0.000178018133738078	
93.0338067651122	-0.000738525390624994	88.499999776559	886	0.000132241286337376	
93.1338067648597	-0.000744628906250003	88.5999997763065	887	-0.000157672693603672	
93.2338067646073	-0.000738525390624994	88.699999776054	888	0.000193275467609055	
93.3338067643548	-0.000750732421874997	88.7999997758016	889	-0.000315346551360562	
93.4338067641023	-0.000744628906250003	88.8999997755491	890	0.000274658203125	
93.5338067638498	-0.000750732421874997	88.9999997752966	891	-0.000223796349018812	
93.6338067635974	-0.000744628906250003	89.0999997750441	892	0.000203451490961015	
93.7338067633449	-0.000744628906250003	89.1999997747917	893	-9.15535129024647E-05	
93.8338067630924	-0.000750732421874997	89.2999997745392	894	-9.15531200007536E-05	
93.9338067628399	-0.0007476806640625	89.3999997742867	895	0.000127157443785109	
94.0338067625875	-0.000750732421874997	89.4999997740342	896	-0.000111898174509406	
94.133806762335	-0.0007476806640625	89.5999997737817	897	0.000101725840067957	
94.2338067620825	-0.000750732421874997	89.6999997735293	898	-0.000101725650893059	
94.33380676183	-0.000753784179687494	89.7999997732768	899	-1.01721379905939E-05	
94.4338067615776	-0.000753784179687494	89.8999997730243	900	2.54304413829232E-05	
94.5338067613251	-0.000753784179687494	89.9999997727718	901	-1.01729137895745E-05	
94.6338067610726	-0.0007476806640625	90.0999997725194	902	0.000111897592432797	
94.7338067608201	-0.000753784179687494	90.1999997722669	903	-0.00018310546875	
94.8338067605677	-0.000753784179687494	90.2999997720144	904	9.15521522983909E-05	
94.9338067603152	-0.000753784179687494	90.3999997717619	905	-2.03454401344061E-05	
95.0338067600627	-0.000753784179687494	90.4999997715095	906	-3.88049592459083E-10	
95.1338067598102	-0.0007476806640625	90.599999771257	907	0.000111897592432797	
95.2338067595578	-0.000753784179687494	90.6999997710045	908	-0.00018310546875	
95.3338067593053	-0.000750732421874997	90.799999770752	909	0.000147501137689687	
95.4338067590528	-0.000756835937500006	90.8999997704996	910	-0.000167844642419368	
95.5338067588003	-0.000753784179687494	90.9999997702471	911	0.000137327253469266	
95.6338067585478	-0.000762939453125	91.0999997699946	912	-0.000223794209887274	
95.7338067582954	-0.000756835937500006	91.1999997697421	913	0.000228881355724297	
95.8338067580429	-0.000759887695312503	91.2999997694897	914	-0.000157673479407094	
95.9338067577904	-0.000762939453125	91.3999997692372	915	-7.76099184918166E-10	
96.0338067575379	-0.000753784179687494	91.4999997689847	916	0.000193277024663985	
96.1338067572855	-0.000753784179687494	91.5999997687322	917	-0.000116983952466398	
96.233806757033	-0.000759887695312503	91.6999997684798	918	-8.13794322311878E-05	
96.3338067567805	-0.000769042968749994	91.7999997682273	919	-9.66402585618198E-05	
96.433806756528	-0.000756835937500006	91.8999997679748	920	0.000310262345010415	
96.5338067562756	-0.000765991210937497	91.9999997677223	921	-0.000340779137331992	
96.6338067560231	-0.000756835937500006	92.0999997674699	922	0.000315348879666999	
96.7338067557706	-0.000756835937500006	92.1999997672174	923	-0.000137328810524195	
96.8338067555181	-0.000765991210937497	92.2999997669649	924	-0.000137328999699093	
96.9338067552657	-0.000762939453125	92.3999997667124	925	0.000162760799867101	
97.0338067550132	-0.000765991210937497	92.49999976646	926	-0.000122070705401711	
97.1338067547607	-0.000762939453125	92.5999997662075	927	0.000101725840067957	
97.2338067545082	-0.000769042968749994	92.699999765955	928	-0.000157674643560313	
97.3338067542558	-0.000759887695312503	92.7999997657025	929	0.000249226606683806	
97.4338067540033	-0.000769042968749994	92.89999976545	930	-0.000295003846986219	
97.5338067537508	-0.000769042968749994	92.9999997651976	931	0.000137328810524195	
97.6338067534983	-0.000772094726562506	93.0999997649451	932	-8.64654066390358E-05	
97.7338067532459	-0.000765991210937497	93.1999997646926	933	0.00014750036643818	
97.8338067529934	-0.000769042968749994	93.2999997644401	934	-0.000137328039272688	
97.9338067527409	-0.000765991210937497	93.3999997641877	935	0.000111896813905332	
98.0338067524884	-0.000769042968749994	93.4999997639352	936	-0.000101724675914738	
98.133806752236	-0.000769042968749994	93.5999997636827	937	4.57754940725863E-05	
98.2338067519835	-0.000756835937500006	93.6999997634302	938	0.000213623046875	
98.333806751731	-0.000759887695312503	93.7999997631778	939	-0.000198363573872484	
98.4338067514785	-0.000775146484375003	93.8999997629253	940	-0.000203450137632899	
98.5338067512261	-0.000775146484375003	93.9999997626728	941	0.000167845806572586	
98.6338067509736	-0.000765991210937497	94.0999997624203	942	0.00011698278831318	
98.7338067507211	-0.000769042968749994	94.1999997621679	943	-0.000162759053637274	
98.8338067504686	-0.000772094726562506	94.2999997619154	944	1.01729137895745E-05	
98.9338067502161	-0.000769042968749994	94.3999997616629	945	8.13788501545787E-05	
99.0338067499637	-0.000769042968749994	94.4999997614104	946	-4.57762689620722E-05	
99.1338067497112	-0.000781249999999997	94.599999761158	947	-0.000213622464798391	
99.2338067494587	-0.0007781982421875	94.6999997609055	948	0.000198364359675907	
99.3338067492062	-0.000772094726562506	94.799999760653	949	3.56039381586015E-05	
99.4338067489538	-0.000775146484375003	94.8999997604005	950	-0.000116983566840645	
99.5338067487013	-0.000775146484375003	94.9999997601481	951	5.59482141397893E-05	
99.6338067484488	-0.000772094726562506	95.0999997598956	952	4.57762689620722E-05	
99.7338067481963	-0.000781249999999997	95.1999997596431	953	-0.000203449933906086	
99.8338067479439	-0.000775146484375003	95.2999997593906	954	0.000228882316150703	
99.9338067476914	-0.000775146484375003	95.3999997591382	955	-0.000101726036518812	
100.033806747439	-0.000781249999999997	95.4999997588857	956	-9.15531200007536E-05	
100.133806747186	-0.000772094726562506	95.5999997586332	957	0.000239055429119617	
100.233806746934	-0.000784301757812494	95.6999997583807	958	-0.000350952235748991	
100.333806746681	-0.000781249999999997	95.7999997581283	959	0.000228881151997484	
100.433806746429	-0.000775146484375003	95.8999997578758	960	3.56047130480874E-05	
100.533806746177	-0.000775146484375003	95.9999997576233	961	-6.10359347774647E-05	
100.633806745924	-0.000781249999999997	96.0999997573708	962	-9.15531200007536E-05	
100.733806745672	-0.0007781982421875	96.1999997571183	963	0.000127157443785109	
100.833806745419	-0.0007781982421875	96.2999997568659	964	-5.59491854801308E-05	
100.933806745167	-0.0007781982421875	96.3999997566134	965	1.01725263448316E-05	
101.033806744914	-0.000781249999999997	96.4999997563609	966	-5.59489890292753E-05	
101.133806744662	-0.0007781982421875	96.5999997561084	967	9.15533164516091E-05	
101.233806744409	-0.0007781982421875	96.699999755856	968	-4.57766582258046E-05	
101.333806744157	-0.000775146484375003	96.7999997556035	969	6.61215162836015E-05	
101.433806743904	-0.0007781982421875	96.899999755351	970	-9.15533164516091E-05	
101.533806743652	-0.0007781982421875	96.9999997550985	971	4.57766582258046E-05	
101.633806743399	-0.000775146484375003	97.0999997548461	972	4.57764654129278E-05	
101.733806743147	-0.000772094726562506	97.1999997545936	973	2.03446634259308E-05	
101.833806742894	-0.000790405273437503	97.2999997543411	974	-0.000361122831236571	
101.933806742642	-0.000775146484375003	97.3999997540886	975	0.000503537594340742	
102.033806742389	-0.000775146484375003	97.4999997538362	976	-0.000239053682889789	
102.133806742137	-0.0007781982421875	97.5999997535837	977	-5.08674793309183E-06	
102.233806741884	-0.000784301757812494	97.6999997533312	978	-7.6293850725051E-05	
102.333806741632	-0.0007781982421875	97.7999997530787	979	0.000172932559507899	
102.43380674138	-0.0007781982421875	97.8999997528263	980	-9.15525379241444E-05	
102.533806741127	-0.000781249999999997	97.9999997525738	981	-3.56039381586015E-05	
102.633806740875	-0.0007781982421875	98.0999997523213	982	9.15533164516091E-05	
102.733806740622	-0.000787353515625006	98.1999997520688	983	-0.00021362207189668	
102.83380674037	-0.000784301757812494	98.2999997518164	984	0.000172931395354681	
102.933806740117	-0.000787353515625006	98.3999997515639	985	-0.000122068762721028	
103.033806739865	-0.000787353515625006	98.4999997513114	986	4.57762689620722E-05	
103.133806739612	-0.000790405273437503	98.5999997510589	987	-6.61209342069924E-05	
103.23380673936	-0.000787353515625006	98.6999997508065	988	9.15521522983909E-05	
103.333806739107	-0.000784301757812494	98.799999750554	989	1.01719442682224E-05	
103.433806738855	-0.000781249999999997	98.8999997503015	990	3.0517578125E-05	
103.533806738602	-0.000781249999999997	98.999999750049	991	-2.54308306466555E-05	
103.63380673835	-0.000784301757812494	99.0999997497966	992	-4.57762689620722E-05	
103.733806738097	-0.00079345703125	99.1999997495441	993	-0.000132242450490594	
103.833806737845	-0.000787353515625006	99.2999997492916	994	0.000208536497666501	
103.933806737592	-0.000784301757812494	99.3999997490391	995	-4.57770474895369E-05	
104.03380673734	-0.000787353515625006	99.4999997487866	996	-7.12063265382312E-05	
104.133806737087	-0.000784301757812494	99.5999997485342	997	0.000101723708212376	
104.233806736835	-0.0007781982421875	99.6999997482817	998	6.61217127344571E-05	
104.333806736582	-0.000790405273437503	99.7999997480292	999	-0.000284829555312172	
104.43380673633	-0.000790405273437503	99.8999997477767	1000	0.000162759257364087	
104.533806736078	-0.000784301757812494	99.9999997475243	1001	7.12063265382312E-05	
104.633806735825	-0.000790405273437503	100.099999747272	1002	-0.000183103722520173	
104.733806735573	-0.000775146484375003	100.199999747019	1003	0.000371294969227165	
104.83380673532	-0.000790405273437503	100.299999746767	1004	-0.000478106987429783	
104.933806735068	-0.000787353515625006	100.399999746514	1005	0.000284829759038985	
105.033806734815	-0.000784301757812494	100.499999746262	1006	-3.05179673887324E-05	
105.133806734563	-0.000790405273437503	100.599999746009	1007	-0.000137327835545875	
105.23380673431	-0.000784301757812494	100.699999745757	1008	0.000193275467609055	
105.333806734058	-0.00079345703125	100.799999745504	1009	-0.000259397580521181	
105.433806733805	-0.000787353515625006	100.899999745252	1010	0.000239053872064687	
105.533806733553	-0.00079345703125	100.999999745	1011	-0.000213622464798391	
105.6338067333	-0.00079345703125	101.099999744747	1012	9.15525379241444E-05	
105.733806733048	-0.000787353515625006	101.199999744495	1013	9.15529308258556E-05	
105.833806732795	-0.000787353515625006	101.299999744242	1014	-7.12070977897383E-05	
105.933806732543	-0.00079345703125	101.39999974399	1015	-9.15525379241444E-05	
106.03380673229	-0.00079345703125	101.499999743737	1016	7.12074906914495E-05	
106.133806732038	-0.000790405273437503	101.599999743485	1017	3.56039381586015E-05	
106.233806731785	-0.000796508789062497	101.699999743232	1018	-0.000147502301842906	
106.333806731533	-0.000796508789062497	101.79999974298	1019	8.13809820101596E-05	
106.43380673128	-0.000790405273437503	101.899999742727	1020	9.15531200007536E-05	
106.533806731028	-0.000790405273437503	101.999999742475	1021	-7.12084583938122E-05	
106.633806730776	-0.000790405273437503	102.099999742222	1022	2.0344858057797E-05	
106.733806730523	-0.000799560546874994	102.19999974197	1023	-0.000167847159900703	
106.833806730271	-0.00079345703125	102.299999741717	1024	0.000218709217733704	
106.933806730018	-0.000802612304687506	102.399999741465	1025	-0.000269570475211367	
107.033806729766	-0.000787353515625006	102.499999741212	1026	0.000406899867812172	
107.133806729513	-0.000799560546874994	102.59999974096	1027	-0.000432331493357196	
107.233806729261	-0.000790405273437503	102.699999740707	1028	0.000361123995389789	
107.333806729008	-0.000796508789062497	102.799999740455	1029	-0.000259399908827618	
107.433806728756	-0.000796508789062497	102.899999740202	1030	0.000101726036518812	
107.533806728503	-0.000796508789062497	102.99999973995	1031	-2.0344858057797E-05	
107.633806728251	-0.00079345703125	103.099999739698	1032	5.59491854801308E-05	
107.733806727998	-0.00079345703125	103.199999739445	1033	-3.56041309714783E-05	
107.833806727746	-0.00079345703125	103.299999739193	1034	1.01725263448316E-05	
107.933806727493	-0.000796508789062497	103.39999973894	1035	-5.59489890292753E-05	
108.033806727241	-0.00079345703125	103.499999738688	1036	9.15533164516091E-05	
108.133806726988	-0.000796508789062497	103.599999738435	1037	-0.000101725650893059	
108.233806726736	-0.000796508789062497	103.699999738183	1038	4.57768510386813E-05	
108.333806726483	-0.000799560546874994	103.79999973793	1039	-6.61213198327459E-05	
108.433806726231	-0.00079345703125	103.899999737678	1040	0.000147500948514789	
108.533806725978	-0.000796508789062497	103.999999737425	1041	-0.000137328999699093	
108.633806725726	-0.0008087158203125	104.099999737173	1042	-0.000167845035321079	
108.733806725474	-0.000802612304687506	104.19999973692	1043	0.000244139853748493	
108.833806725221	-0.000796508789062497	104.299999736668	1044	-5.82074388688625E-10	
108.933806724969	-0.000796508789062497	104.399999736415	1045	-5.0861661293311E-05	
109.033806724716	-0.000796508789062497	104.499999736163	1046	2.03450526896631E-05	
109.133806724464	-0.000799560546874994	104.59999973591	1047	-5.59487962163985E-05	
109.233806724211	-0.00079345703125	104.699999735658	1048	0.000147500948514789	
109.333806723959	-0.000796508789062497	104.799999735405	1049	-0.000137328999699093	
109.433806723706	-0.000799560546874994	104.899999735153	1050	3.88049592459083E-10	
109.533806723454	-0.0008087158203125	104.9999997349	1051	-0.000142414981382899	
109.633806723201	-0.000802612304687506	105.099999734648	1052	0.000208536497666501	
109.733806722949	-0.000799560546874994	105.199999734396	1053	-4.57770474895369E-05	
109.833806722696	-0.000805664062500003	105.299999734143	1054	-0.000127155319205485	
109.933806722444	-0.000802612304687506	105.399999733891	1055	0.000137328039272688	
110.033806722191	-0.000799560546874994	105.499999733638	1056	-3.88049592459083E-10	
110.133806721939	-0.000796508789062497	105.599999733386	1057	3.0517578125E-05	
110.233806721686	-0.000805664062500003	105.699999733133	1058	-0.000193276253412478	
110.333806721434	-0.000811767578124997	105.799999732881	1059	5.08461380377412E-06	
110.433806721181	-0.000805664062500003	105.899999732628	1060	0.000152589054778218	
110.533806720929	-0.0008087158203125	105.999999732376	1061	-0.000147502505569719	
110.633806720676	-0.0008087158203125	106.099999732123	1062	5.59491854801308E-05	
110.733806720424	-0.000802612304687506	106.199999731871	1063	0.000101725454442203	
110.833806720172	-0.0008087158203125	106.299999731618	1064	-0.000183105075848289	
110.933806719919	-0.000805664062500003	106.399999731366	1065	0.000147501530591398	
111.033806719667	-0.000805664062500003	106.499999731113	1066	-5.59493782930076E-05	
111.133806719414	-0.0008087158203125	106.599999730861	1067	-4.57766582258046E-05	
111.233806719162	-0.000799560546874994	106.699999730608	1068	0.00020344955555629	
111.333806718909	-0.0008087158203125	106.799999730356	1069	-0.000284829380689189	
111.433806718657	-0.000811767578124997	106.899999730103	1070	8.13794322311878E-05	
111.533806718404	-0.000805664062500003	106.999999729851	1071	0.000116984920168761	
111.633806718152	-0.000811767578124997	107.099999729598	1072	-0.00019327896006871	
111.733806717899	-0.000805664062500003	107.199999729346	1073	0.000203451490961015	
111.833806717647	-0.000811767578124997	107.299999729094	1074	-0.000203451490961015	
111.933806717394	-0.0008087158203125	107.399999728841	1075	0.000147502505569719	
112.033806717142	-0.000811767578124997	107.499999728589	1076	-0.000111898174509406	
112.133806716889	-0.000805664062500003	107.599999728336	1077	0.000157674832735211	
112.233806716637	-0.0008087158203125	107.699999728084	1078	-0.000137329974677414	
112.333806716384	-0.000811767578124997	107.799999727831	1079	1.94024796229542E-10	
112.433806716132	-0.0008087158203125	107.899999727579	1080	8.13807928352617E-05	
112.533806715879	-0.000811767578124997	107.999999727326	1081	-0.000101725650893059	
112.633806715627	-0.000814819335937494	108.099999727074	1082	-1.01721379905939E-05	
112.733806715375	-0.000820922851562503	108.199999726821	1083	-8.64659887156449E-05	
112.833806715122	-0.000814819335937494	108.299999726569	1084	0.000172930609551258	
112.93380671487	-0.000817871093750006	108.399999726316	1085	-0.000147499595186673	
113.033806714617	-0.000814819335937494	108.499999726064	1086	0.000111896231828723	
113.133806714365	-0.000814819335937494	108.599999725811	1087	-4.57762689620722E-05	
113.233806714112	-0.0008087158203125	108.699999725559	1088	0.000122069926874246	
113.33380671386	-0.0008087158203125	108.799999725306	1089	-7.12074906914495E-05	
113.433806713607	-0.000817871093750006	108.899999725054	1090	-0.00014750036643818	
113.533806713355	-0.000820922851562503	108.999999724801	1091	5.0862436182797E-05	
113.633806713102	-0.000820922851562503	109.099999724549	1092	5.08577795699239E-06	
113.73380671285	-0.000820922851562503	109.199999724297	1093	-1.0172720067203E-05	
113.833806712597	-0.000811767578124997	109.299999724044	1094	0.000167845224495977	
113.933806712345	-0.000814819335937494	109.399999723792	1095	-0.000162759053637274	
114.033806712092	-0.000817871093750006	109.499999723539	1096	1.01729137895745E-05	
114.13380671184	-0.000817871093750006	109.599999723287	1097	2.54314127232647E-05	
114.233806711587	-0.000811767578124997	109.699999723034	1098	0.00010172448673984	
114.333806711335	-0.000814819335937494	109.799999722782	1099	-0.000127155697555281	
114.433806711082	-0.000817871093750006	109.899999722529	1100	3.88049592459083E-10	
114.53380671083	-0.000814819335937494	109.999999722277	1101	8.13788501545787E-05	
114.633806710577	-0.000811767578124997	110.099999722024	1102	1.0172720067203E-05	
114.733806710325	-0.000817871093750006	110.199999721772	1103	-0.000137327253469266	
114.833806710073	-0.000827026367187497	110.299999721519	1104	-8.64671528688632E-05	
114.93380670982	-0.000827026367187497	110.399999721267	1105	8.64669564180076E-05	
115.033806709568	-0.000823974609375	110.499999721014	1106	2.54316055361414E-05	
115.133806709315	-0.000823974609375	110.599999720762	1107	-3.56041309714783E-05	
115.233806709063	-0.000820922851562503	110.699999720509	1108	6.61215162836015E-05	
115.33380670881	-0.000836181640625003	110.799999720257	1109	-0.000315347715513781	
115.433806708558	-0.000823974609375	110.899999720004	1110	0.000411985267419368	
115.533806708305	-0.000830078124999994	110.999999719752	1111	-0.000305174820823595	
115.633806708053	-0.000823974609375	111.099999719499	1112	0.000223794995690696	
115.7338067078	-0.000820922851562503	111.199999719247	1113	-3.56035488948692E-05	
115.833806707548	-0.000817871093750006	111.299999718995	1114	4.06897161155939E-05	
115.933806707295	-0.000820922851562503	111.399999718742	1115	-8.13794322311878E-05	
116.033806707043	-0.000823974609375	111.49999971849	1116	-1.01733021438122E-05	
116.13380670679	-0.000817871093750006	111.599999718237	1117	0.000137329581775703	
116.233806706538	-0.000827026367187497	111.699999717985	1118	-0.000249226606683806	
116.333806706285	-0.000833129882812506	111.799999717732	1119	1.5260438885889E-05	
116.433806706033	-0.000823974609375	111.89999971748	1120	0.000208535129786469	
116.53380670578	-0.000827026367187497	111.999999717227	1121	-0.000183104886673391	
116.633806705528	-0.000827026367187497	112.099999716975	1122	6.61217127344571E-05	
116.733806705275	-0.000823974609375	112.199999716722	1123	4.57766582258046E-05	
116.833806705023	-0.000820922851562503	112.29999971647	1124	2.0344858057797E-05	
116.933806704771	-0.000823974609375	112.399999716217	1125	-8.13807928352617E-05	
117.033806704518	-0.000830078124999994	112.499999715965	1126	-6.61213198327459E-05	
117.133806704266	-0.000830078124999994	112.599999715712	1127	6.10345741733909E-05	
117.233806704013	-0.000823974609375	112.69999971546	1128	9.15525379241444E-05	
117.333806703761	-0.000833129882812506	112.799999715207	1129	-0.000239052911638282	
117.433806703508	-0.000823974609375	112.899999714955	1130	0.000295001897029579	
117.533806703256	-0.000827026367187497	112.999999714702	1131	-0.000193277417565696	
117.633806703003	-0.000823974609375	113.09999971445	1132	0.000122070705401711	
117.733806702751	-0.000830078124999994	113.199999714197	1133	-0.000157674643560313	
117.833806702498	-0.000823974609375	113.299999713945	1134	0.000193277606740594	
117.933806702246	-0.000830078124999994	113.399999713693	1135	-0.000203450515982695	
118.033806701993	-0.000836181640625003	113.49999971344	1136	-2.03442759811878E-05	
118.133806701741	-0.000830078124999994	113.599999713188	1137	0.000162758093210869	
118.233806701488	-0.000827026367187497	113.699999712935	1138	-3.56031632691156E-05	
118.333806701236	-0.000833129882812506	113.799999712683	1139	-0.000127154737128876	
118.433806700983	-0.000842285156249997	113.89999971243	1140	-8.64671528688632E-05	
118.533806700731	-0.000827026367187497	113.999999712178	1141	0.000366210355423391	
118.633806700478	-0.000833129882812506	114.099999711925	1142	-0.000320432329317555	
118.733806700226	-0.000833129882812506	114.199999711673	1143	0.000122069730423391	
118.833806699973	-0.0008392333984375	114.29999971142	1144	-0.000132242450490594	
118.933806699721	-0.000833129882812506	114.399999711168	1145	0.00018310546875	
119.033806699469	-0.000827026367187497	114.499999710915	1146	2.03442759811878E-05	
119.133806699216	-0.000830078124999994	114.599999710663	1147	-0.000106810650322586	
119.233806698964	-0.000833129882812506	114.69999971041	1148	3.88049592459083E-10	
119.333806698711	-0.000836181640625003	114.799999710158	1149	-3.0517578125E-05	
119.433806698459	-0.000842285156249997	114.899999709905	1150	-8.64671528688632E-05	
119.533806698206	-0.000833129882812506	114.999999709653	1151	0.000228882898227312	
119.633806697954	-0.000842285156249997	115.0999997094	1152	-0.00029500326490961	
119.733806697701	-0.000836181640625003	115.199999709148	1153	0.000249227363383397	
119.833806697449	-0.0008392333984375	115.299999708895	1154	-0.000157675021910109	
119.933806697196	-0.000833129882812506	115.399999708643	1155	0.000167847159900703	
120.033806696944	-0.000845336914062494	115.499999708391	1156	-0.000305175577523187	
120.133806696691	-0.0008392333984375	115.599999708138	1157	0.000274657621048391	
120.233806696439	-0.0008392333984375	115.699999707886	1158	-0.000111897592432797	
120.333806696186	-0.000845336914062494	115.799999707633	1159	-9.15529308258556E-05	
120.433806695934	-0.000836181640625003	115.899999707381	1160	0.000239054075791501	
120.533806695681	-0.000845336914062494	115.999999707128	1161	-0.000295003846986219	
120.633806695429	-0.000842285156249997	116.099999706876	1162	0.000193277795915492	
120.733806695176	-0.000842285156249997	116.199999706623	1163	-6.61207377561368E-05	
120.833806694924	-0.0008392333984375	116.299999706371	1164	6.61217127344571E-05	
120.933806694671	-0.000842285156249997	116.399999706118	1165	-9.15531200007536E-05	
121.033806694419	-0.0008392333984375	116.499999705866	1166	0.000101725840067957	
121.133806694167	-0.000842285156249997	116.599999705613	1167	-0.000101725650893059	
121.233806693914	-0.0008392333984375	116.699999705361	1168	0.000101725840067957	
121.333806693662	-0.000836181640625003	116.799999705108	1169	1.01723317129654E-05	
121.433806693409	-0.000833129882812506	116.899999704856	1170	3.0517190680257E-05	
121.533806693157	-0.000845336914062494	116.999999704603	1171	-0.000249226402956992	
121.633806692904	-0.000851440429687503	117.099999704351	1172	4.06906874559354E-05	
121.733806692652	-0.000833129882812506	117.199999704098	1173	0.000366208987543359	
121.833806692399	-0.000845336914062494	117.299999703846	1174	-0.000457762303994969	
121.933806692147	-0.000842285156249997	117.399999703593	1175	0.000259398540947586	
122.033806691894	-0.000842285156249997	117.499999703341	1176	-7.62932686484419E-05	
122.133806691642	-0.0008392333984375	117.599999703089	1177	6.61217127344571E-05	
122.233806691389	-0.000842285156249997	117.699999702836	1178	-9.15531200007536E-05	
122.333806691137	-0.000845336914062494	117.799999702584	1179	-1.01721379905939E-05	
122.433806690884	-0.000833129882812506	117.899999702331	1180	0.000249226402956992	
122.533806690632	-0.000848388671875006	117.999999702079	1181	-0.000432330503826961	
122.633806690379	-0.000845336914062494	118.099999701826	1182	0.000274656456895173	
122.733806690127	-0.000842285156249997	118.199999701574	1183	-3.05173834931338E-05	
122.833806689874	-0.000845336914062494	118.299999701321	1184	-8.13798178569414E-05	
122.933806689622	-0.000845336914062494	118.399999701069	1185	4.57754940725863E-05	
123.03380668937	-0.000851440429687503	118.499999700816	1186	-0.000122069344797637	
123.133806689117	-0.0008544921875	118.599999700564	1187	1.52577222252148E-05	
123.233806688865	-0.000848388671875006	118.699999700311	1188	0.000127157254610211	
123.333806688612	-0.0008392333984375	118.799999700059	1189	8.64657922647893E-05	
123.43380668836	-0.000842285156249997	118.899999699806	1190	-0.000142414981382899	
123.533806688107	-0.000848388671875006	118.999999699554	1191	-4.57747191831004E-05	
123.633806687855	-0.000848388671875006	119.099999699301	1192	6.10347669862676E-05	
123.733806687602	-0.000845336914062494	119.199999699049	1193	3.560296681826E-05	
123.83380668735	-0.000845336914062494	119.299999698796	1194	-3.56039381586015E-05	
123.933806687097	-0.000845336914062494	119.399999698544	1195	1.01719442682224E-05	
124.033806686845	-0.000845336914062494	119.499999698292	1196	-3.88049592459083E-10	
124.133806686592	-0.000842285156249997	119.599999698039	1197	5.59486034035217E-05	
124.23380668634	-0.000851440429687503	119.699999697787	1198	-0.00020344858057797	
124.333806686087	-0.000845336914062494	119.799999697534	1199	0.000228879027417861	
124.433806685835	-0.0008392333984375	119.899999697282	1200	1.01733021438122E-05	
