Time (s)	WE(1).Potential (V)	Corrected time (s)	Index	dWE(1).Potential/dt (V/s)	Cutoffs	OCP value (V)
4.39180098891177	0.0029876708984375	0	1	0	dWE(1).Potential/dt < 1E-06 V/s	0.00281159644033395
4.49180098865929	0.00299072265625	0.0999999997475243	2	3.05171415675431E-05		
4.59180098840682	0.0029937744140625	0.199999999495049	3	3.05159774143249E-05		
4.69180098815434	0.00299987792968751	0.299999999242573	4	8.64726098370738E-05		
4.79180098790187	0.0029876708984375	0.399999998990097	5	-0.000284832873148844	dWE(1).Potential/dt < 1E-06 V/s	
4.89180098764939	0.0029876708984375	0.499999998737621	6	0.000162758864462376		
4.99180098739691	0.002978515625	0.599999998485146	7	-0.000208540397579782	dWE(1).Potential/dt < 1E-06 V/s	
5.09180098714444	0.0029876708984375	0.69999999823267	8	0.000274665129836649		
5.19180098689196	0.0029876708984375	0.799999997980194	9	-0.000137333729071543	dWE(1).Potential/dt < 1E-06 V/s	
5.29180098663949	0.00298461914062501	0.899999997727718	10	-2.54305632552132E-05	dWE(1).Potential/dt < 1E-06 V/s	
5.39180098638701	0.00299072265625	0.999999997475243	11	0.000147502229083329		
5.49180098613454	0.00299072265625	1.09999999722277	12	-8.13798178569414E-05	dWE(1).Potential/dt < 1E-06 V/s	
5.59180098588206	0.00298461914062501	1.19999999697029	13	-9.15506461751647E-05	dWE(1).Potential/dt < 1E-06 V/s	
5.69180098562958	0.0029754638671875	1.29999999671782	14	-9.66403313213959E-05	dWE(1).Potential/dt < 1E-06 V/s	
5.79180098537711	0.002972412109375	1.39999999646534	15	3.05194698739797E-05		
5.89180098512463	0.0029754638671875	1.49999999621286	16	6.10311799391638E-05		
5.99180098487216	0.002972412109375	1.59999999596039	17	-0.000101722253020853	dWE(1).Potential/dt < 1E-06 V/s	
6.09180098461968	0.00298156738281249	1.69999999570791	18	0.000213616891414858		
6.19180098436721	0.0029754638671875	1.79999999545544	19	-0.000228878954658285	dWE(1).Potential/dt < 1E-06 V/s	
6.29180098411473	0.00296936035156251	1.89999999520296	20	-1.01708283182234E-05	dWE(1).Potential/dt < 1E-06 V/s	
6.39180098386225	0.0029754638671875	1.99999999495049	21	0.000162759635713883		
6.49180098360978	0.002978515625	2.09999999469801	22	-3.5604494769359E-05	dWE(1).Potential/dt < 1E-06 V/s	
6.5918009833573	0.002972412109375	2.19999999444553	23	-0.000127152045024559	dWE(1).Potential/dt < 1E-06 V/s	
6.69180098310483	0.002972412109375	2.29999999419306	24	8.1375939771533E-05		
6.79180098285235	0.002972412109375	2.39999999394058	25	-2.03455365408445E-05	dWE(1).Potential/dt < 1E-06 V/s	
6.89180098259988	0.002972412109375	2.49999999368811	26	-7.76102904165299E-10	dWE(1).Potential/dt < 1E-06 V/s	
6.9918009823474	0.00296630859374999	2.59999999343563	27	-0.000111902394564822	dWE(1).Potential/dt < 1E-06 V/s	
7.09180098209492	0.00296630859374999	2.69999999318316	28	7.12082182872109E-05		
7.19180098184245	0.00296936035156251	2.79999999293068	29	3.56068230757955E-05		
7.29180098158997	0.002978515625	2.8999999926782	30	0.000132240165839903		
7.3918009813375	0.0029754638671875	2.99999999242573	31	-0.000152583379531279	dWE(1).Potential/dt < 1E-06 V/s	
7.49180098108502	0.002960205078125	3.09999999217325	32	-0.000213625418837182	dWE(1).Potential/dt < 1E-06 V/s	
7.59180098083255	0.002960205078125	3.19999999192078	33	0.000167846999829635		
7.69180098058007	0.002972412109375	3.2999999916683	34	0.000172934349393472		
7.79180098032759	0.00295104980468749	3.39999999141583	35	-0.000534064311068505	dWE(1).Potential/dt < 1E-06 V/s	
7.89180098007512	0.00296936035156251	3.49999999116335	36	0.000625616521574557		
7.99180097982264	0.002960205078125	3.59999999091087	37	-0.000452679872978479	dWE(1).Potential/dt < 1E-06 V/s	
8.09180097957017	0.002972412109375	3.6999999906584	38	0.00039164480403997		
8.19180097931769	0.0029571533203125	3.79999999040592	39	-0.000452680629678071	dWE(1).Potential/dt < 1E-06 V/s	
8.29180097906522	0.0029632568359375	3.89999999015345	40	0.000330604292685166		
8.39180097881274	0.0029571533203125	3.99999998990097	41	-0.000233961647609249	dWE(1).Potential/dt < 1E-06 V/s	
8.49180097856026	0.0029632568359375	4.0999999896485	42	0.000203443734790199		
8.59180097830779	0.00296630859374999	4.19999998939602	43	-3.56006166839506E-05	dWE(1).Potential/dt < 1E-06 V/s	
8.69180097805531	0.00296936035156251	4.29999998914354	44	4.06918516091537E-05		
8.79180097780284	0.00296630859374999	4.39999998889107	45	-8.13844744698145E-05	dWE(1).Potential/dt < 1E-06 V/s	
8.89180097755036	0.0029632568359375	4.49999998863859	46	-1.0171604117204E-05	dWE(1).Potential/dt < 1E-06 V/s	
8.99180097729788	0.0029632568359375	4.59999998838612	47	2.54328915616497E-05		
9.09180097704541	0.002947998046875	4.69999998813364	48	-0.0002899163227994	dWE(1).Potential/dt < 1E-06 V/s	
9.19180097679293	0.002960205078125	4.79999998788117	49	0.000401817174861208		
9.29180097654046	0.002960205078125	4.89999998762869	50	-0.000193279891391285	dWE(1).Potential/dt < 1E-06 V/s	
9.39180097628798	0.00295104980468749	4.99999998737621	51	-0.000127159029943869	dWE(1).Potential/dt < 1E-06 V/s	
9.49180097603551	0.0029571533203125	5.09999998712374	52	0.000218711997149512		
9.59180097578303	0.00294189453125	5.19999998687126	53	-0.000381473189918324	dWE(1).Potential/dt < 1E-06 V/s	
9.69180097553055	0.00295104980468749	5.29999998661879	54	0.000366207241313532		
9.79180097527808	0.002947998046875	5.39999998636631	55	-0.000213621548027731	dWE(1).Potential/dt < 1E-06 V/s	
9.8918009750256	0.00294189453125	5.49999998611383	56	-4.57722198916599E-05	dWE(1).Potential/dt < 1E-06 V/s	
9.99180097477313	0.002960205078125	5.59999998586136	57	0.000396723626181483		
10.0918009745207	0.00295410156250001	5.69999998560888	58	-0.000345861713867635	dWE(1).Potential/dt < 1E-06 V/s	
10.1918009742682	0.0029449462890625	5.79999998535641	59	-3.56052732968237E-05	dWE(1).Potential/dt < 1E-06 V/s	
10.2918009740157	0.00295410156250001	5.89999998510393	60	0.000254316488280892		
10.3918009737632	0.002947998046875	5.99999998485146	61	-0.000249229924520478	dWE(1).Potential/dt < 1E-06 V/s	
10.4918009735107	0.00293884277343751	6.09999998459898	62	-6.61146550555713E-05	dWE(1).Potential/dt < 1E-06 V/s	
10.5918009732583	0.00294189453125	6.1999999843465	63	0.000142413322464563		
10.6918009730058	0.0029449462890625	6.29999998409403	64	-1.01754849310964E-05	dWE(1).Potential/dt < 1E-06 V/s	
10.7918009727533	0.00294189453125	6.39999998384155	65	-8.13774895505048E-05	dWE(1).Potential/dt < 1E-06 V/s	
10.8918009725008	0.0029449462890625	6.49999998358908	66	0.000101721474493388		
10.9918009722484	0.0029571533203125	6.5999999833366	67	0.000178022484760731		
11.0918009719959	0.002960205078125	6.69999998308413	68	-7.62978961574845E-05	dWE(1).Potential/dt < 1E-06 V/s	
11.1918009717434	0.0029449462890625	6.79999998283165	69	-0.000274656602414325	dWE(1).Potential/dt < 1E-06 V/s	
11.2918009714909	0.00294189453125	6.89999998257917	70	0.000132244051201269		
11.3918009712385	0.002947998046875	6.9999999823267	71	9.6634124929551E-05		
11.491800970986	0.00293579101562499	7.09999998207422	72	-0.000305172958178446	dWE(1).Potential/dt < 1E-06 V/s	
11.5918009707335	0.0029296875	7.19999998182175	73	5.08619013999123E-05		
11.691800970481	0.00293579101562499	7.29999998156927	74	0.000142412551213056		
11.7918009702286	0.002947998046875	7.3999999813168	75	0.000132243279949762		
11.8918009699761	0.00293884277343751	7.49999998106432	76	-0.000289911666186526	dWE(1).Potential/dt < 1E-06 V/s	
11.9918009697236	0.0029449462890625	7.59999998081184	77	0.00025939685292542		
12.0918009694711	0.00293884277343751	7.69999998055937	78	-0.000213619990972802	dWE(1).Potential/dt < 1E-06 V/s	
12.1918009692187	0.0029327392578125	7.79999998030689	79	-2.0347864847281E-05	dWE(1).Potential/dt < 1E-06 V/s	
12.2918009689662	0.00293884277343751	7.89999998005442	80	0.000162767406436615		
12.3918009687137	0.00293884277343751	7.99999997980194	81	-9.1553753009066E-05	dWE(1).Potential/dt < 1E-06 V/s	
12.4918009684612	0.0029327392578125	8.09999997954947	82	-9.15545315365307E-05	dWE(1).Potential/dt < 1E-06 V/s	
12.5918009682088	0.0029449462890625	8.19999997929699	83	0.000295007572276518		
12.6918009679563	0.00293884277343751	8.29999997904451	84	-0.000274658144917339	dWE(1).Potential/dt < 1E-06 V/s	
12.7918009677038	0.0029296875	8.39999997879204	85	-5.59500331291929E-05	dWE(1).Potential/dt < 1E-06 V/s	
12.8918009674513	0.00293884277343751	8.49999997853956	86	0.000254316488280892		
12.9918009671989	0.00293884277343751	8.59999997828709	87	-0.000137328301207162	dWE(1).Potential/dt < 1E-06 V/s	
13.0918009669464	0.00293579101562499	8.69999997803461	88	-2.5434443159611E-05	dWE(1).Potential/dt < 1E-06 V/s	
13.1918009666939	0.00292053222656249	8.79999997778214	89	-0.000244141789153218	dWE(1).Potential/dt < 1E-06 V/s	
13.2918009664414	0.00293884277343751	8.89999997752966	90	0.000503543298691511		
13.391800966189	0.0029327392578125	8.99999997727718	91	-0.00037638662615791	dWE(1).Potential/dt < 1E-06 V/s	
13.4918009659365	0.00293579101562499	9.09999997702471	92	0.000188194084330462		
13.591800965684	0.00293579101562499	9.19999997677223	93	-5.59523614356294E-05	dWE(1).Potential/dt < 1E-06 V/s	
13.6918009654315	0.00292358398437501	9.29999997651976	94	-0.000213619990972802	dWE(1).Potential/dt < 1E-06 V/s	
13.7918009651791	0.00293884277343751	9.39999997626728	95	0.000422161159804091		
13.8918009649266	0.0029266357421875	9.49999997601481	96	-0.000442504358943552	dWE(1).Potential/dt < 1E-06 V/s	
13.9918009646741	0.0029144287109375	9.59999997576233	97	-3.05210232909303E-05	dWE(1).Potential/dt < 1E-06 V/s	
14.0918009644216	0.0029296875	9.69999997550985	98	0.00038147164741531		
14.1918009641691	0.00293579101562499	9.79999997525738	99	-0.000106814266473521	dWE(1).Potential/dt < 1E-06 V/s	
14.2918009639167	0.00293579101562499	9.8999999750049	100	-2.03463132493198E-05	dWE(1).Potential/dt < 1E-06 V/s	
14.3918009636642	0.00293579101562499	9.99999997475243	101	2.03432082344079E-05		
14.4918009634117	0.0029266357421875	10.0999999745	102	-0.000167844671523198	dWE(1).Potential/dt < 1E-06 V/s	
14.5918009631592	0.00292053222656249	10.1999999742475	103	-5.0927869779116E-06	dWE(1).Potential/dt < 1E-06 V/s	
14.6918009629068	0.00292053222656249	10.299999973995	104	4.0691073081689E-05		
14.7918009626543	0.0029266357421875	10.3999999737425	105	9.15545315365307E-05		
14.8918009624018	0.00292358398437501	10.49999997349	106	-0.000127158244140446	dWE(1).Potential/dt < 1E-06 V/s	
14.9918009621493	0.0029327392578125	10.5999999732376	107	0.000223795475903898		
15.0918009618969	0.00292358398437501	10.6999999729851	108	-0.000284824316622689	dWE(1).Potential/dt < 1E-06 V/s	
15.1918009616444	0.00292358398437501	10.7999999727326	109	0.000137328301207162		
15.2918009613919	0.0029296875	10.8999999724801	110	8.13798178569414E-05		
15.3918009611394	0.0029144287109375	10.9999999722277	111	-0.00035095217754133	dWE(1).Potential/dt < 1E-06 V/s	
15.491800960887	0.0029296875	11.0999999719752	112	0.000478108879178762		
15.5918009606345	0.00292053222656249	11.1999999717227	113	-0.000396731367800385	dWE(1).Potential/dt < 1E-06 V/s	
15.691800960382	0.0029296875	11.2999999714702	114	0.000325522385537624		
15.7918009601295	0.0029266357421875	11.3999999712178	115	-0.000193277563084848	dWE(1).Potential/dt < 1E-06 V/s	
15.8918009598771	0.0029266357421875	11.4999999709653	116	6.61193116684444E-05		
15.9918009596246	0.00292053222656249	11.5999999707128	117	-0.000122074779937975	dWE(1).Potential/dt < 1E-06 V/s	
16.0918009593721	0.00291748046875	11.6999999704603	118	1.52605116454652E-05		
16.1918009591196	0.0029296875	11.7999999702079	119	0.000239057539147325		
16.2918009588672	0.0029144287109375	11.8999999699554	120	-0.000432334316428751	dWE(1).Potential/dt < 1E-06 V/s	
16.3918009586147	0.0029144287109375	11.9999999697029	121	0.000218709668843076		
16.4918009583622	0.0029266357421875	12.0999999694504	122	0.000172934349393472		
16.5918009581097	0.002911376953125	12.199999969198	123	-0.000422162731410936	dWE(1).Potential/dt < 1E-06 V/s	
16.6918009578573	0.002911376953125	12.2999999689455	124	0.000218708897591569		
16.7918009576048	0.00292053222656249	12.399999968693	125	0.000116979659651406		
16.8918009573523	0.00291748046875	12.4999999684405	126	-0.000162758864462376	dWE(1).Potential/dt < 1E-06 V/s	
16.9918009570998	0.00290832519531251	12.5999999681881	127	-0.000101719924714416	dWE(1).Potential/dt < 1E-06 V/s	
17.0918009568474	0.00292053222656249	12.6999999679356	128	0.000320429593557492		
17.1918009565949	0.002911376953125	12.7999999676831	129	-0.000340776692610234	dWE(1).Potential/dt < 1E-06 V/s	
17.2918009563424	0.00290832519531251	12.8999999674306	130	9.15506461751647E-05		
17.3918009560899	0.00290832519531251	12.9999999671782	131	5.08968287249445E-06		
17.4918009558374	0.00292358398437501	13.0999999669257	132	0.000269573909463361		
17.591800955585	0.00290527343749999	13.1999999666732	133	-0.000513716484420002	dWE(1).Potential/dt < 1E-06 V/s	
17.6918009553325	0.00290832519531251	13.2999999664207	134	0.000320438906783238		
17.79180095508	0.00290832519531251	13.3999999661683	135	-9.66387815424241E-05	dWE(1).Potential/dt < 1E-06 V/s	
17.8918009548275	0.002911376953125	13.4999999659158	136	6.61224112263881E-05		
17.9918009545751	0.00290527343749999	13.5999999656633	137	-0.000147507671499625	dWE(1).Potential/dt < 1E-06 V/s	
18.0918009543226	0.0029144287109375	13.6999999654108	138	0.000249229924520478		
18.1918009540701	0.002911376953125	13.7999999651583	139	-0.000183105177711695	dWE(1).Potential/dt < 1E-06 V/s	
18.2918009538176	0.0029022216796875	13.8999999649059	140	-0.000101730016467627	dWE(1).Potential/dt < 1E-06 V/s	
18.3918009535652	0.0029144287109375	13.9999999646534	141	0.000320440478390083		
18.4918009533127	0.0029144287109375	14.0999999644009	142	-0.000172935120644979	dWE(1).Potential/dt < 1E-06 V/s	
18.5918009530602	0.00290832519531251	14.1999999641484	143	-7.12051114533097E-05	dWE(1).Potential/dt < 1E-06 V/s	
18.6918009528077	0.002899169921875	14.299999963896	144	-9.66403313213959E-05	dWE(1).Potential/dt < 1E-06 V/s	
18.7918009525553	0.0029144287109375	14.3999999636435	145	0.000366211897926405		
18.8918009523028	0.002911376953125	14.499999963391	146	-0.000264484988292679	dWE(1).Potential/dt < 1E-06 V/s	
18.9918009520503	0.00290527343749999	14.5999999631385	147	-2.54375481745228E-05	dWE(1).Potential/dt < 1E-06 V/s	
19.0918009517978	0.0029144287109375	14.6999999628861	148	0.000228885153774172		
19.1918009515454	0.00290527343749999	14.7999999626336	149	-0.000295006786473095	dWE(1).Potential/dt < 1E-06 V/s	
19.2918009512929	0.002899169921875	14.8999999623811	150	2.54328915616497E-05		
19.3918009510404	0.00290527343749999	14.9999999621286	151	0.000152584936586209		
19.4918009507879	0.0028961181640625	15.0999999618762	152	-0.00025939685292542	dWE(1).Potential/dt < 1E-06 V/s	
19.5918009505355	0.00290527343749999	15.1999999616237	153	0.000294996716547757		
19.691800950283	0.0028961181640625	15.2999999613712	154	-0.000305171415675431	dWE(1).Potential/dt < 1E-06 V/s	
19.7918009500305	0.00290527343749999	15.3999999611187	155	0.000305169087368995		
19.891800949778	0.0028961181640625	15.4999999608663	156	-0.000305171415675431	dWE(1).Potential/dt < 1E-06 V/s	
19.9918009495256	0.0029022216796875	15.5999999606138	157	0.000249221367994323		
20.0918009492731	0.00290527343749999	15.6999999603613	158	-4.57729947811458E-05	dWE(1).Potential/dt < 1E-06 V/s	
20.1918009490206	0.00290527343749999	15.7999999601088	159	-1.52620632434264E-05	dWE(1).Potential/dt < 1E-06 V/s	
20.2918009487681	0.002899169921875	15.8999999598564	160	-0.000101724581327289	dWE(1).Potential/dt < 1E-06 V/s	
20.3918009485157	0.002899169921875	15.9999999596039	161	7.12074397597462E-05		
20.4918009482632	0.00289306640625001	16.0999999593514	162	-0.000132240165839903	dWE(1).Potential/dt < 1E-06 V/s	
20.5918009480107	0.002886962890625	16.1999999590989	163	-4.06926264986396E-05	dWE(1).Potential/dt < 1E-06 V/s	
20.6918009477582	0.00289306640625001	16.2999999588465	164	0.000162767406436615		
20.7918009475057	0.002899169921875	16.399999958594	165	2.03416566364467E-05		
20.8918009472533	0.00290527343749999	16.4999999583415	166	6.10335082456004E-05		
20.9918009470008	0.00289306640625001	16.599999958089	167	-0.000274655059911311	dWE(1).Potential/dt < 1E-06 V/s	
21.0918009467483	0.00289306640625001	16.6999999578366	168	0.000162761192768812		
21.1918009464958	0.0028961181640625	16.7999999575841	169	1.52597349369898E-05		
21.2918009462434	0.002886962890625	16.8999999573316	170	-0.000203455376322381	dWE(1).Potential/dt < 1E-06 V/s	
21.3918009459909	0.00289306640625001	16.9999999570791	171	0.000228889810387045		
21.4918009457384	0.00289306640625001	17.0999999568267	172	-0.000101726131106261	dWE(1).Potential/dt < 1E-06 V/s	
21.5918009454859	0.00290832519531251	17.1999999565742	173	0.000300091836834326		
21.6918009452335	0.002886962890625	17.2999999563217	174	-0.000569664174690843	dWE(1).Potential/dt < 1E-06 V/s	
21.791800944981	0.00289306640625001	17.3999999560692	175	0.000411994231399149		
21.8918009447285	0.002886962890625	17.4999999558167	176	-0.000254318059887737	dWE(1).Potential/dt < 1E-06 V/s	
21.991800944476	0.002886962890625	17.5999999555643	177	9.15560813155025E-05		
22.0918009442236	0.00289306640625001	17.6999999553118	178	9.15568598429672E-05		
22.1918009439711	0.00289001464843749	17.7999999550593	179	-0.000127162129501812	dWE(1).Potential/dt < 1E-06 V/s	
22.2918009437186	0.00289001464843749	17.8999999548068	180	5.59484797122423E-05		
22.3918009434661	0.002899169921875	17.9999999545544	181	0.000157674614456482		
22.4918009432137	0.0028961181640625	18.0999999543019	182	-0.000162759635713883	dWE(1).Potential/dt < 1E-06 V/s	
22.5918009429612	0.002880859375	18.1999999540494	183	-0.000213625418837182	dWE(1).Potential/dt < 1E-06 V/s	
22.6918009427087	0.002886962890625	18.2999999537969	184	0.000279741623671725		
22.7918009424562	0.00289306640625001	18.3999999535445	185	-1.01646191978944E-05	dWE(1).Potential/dt < 1E-06 V/s	
22.8918009422038	0.00289306640625001	18.499999953292	186	-5.08634548168629E-05	dWE(1).Potential/dt < 1E-06 V/s	
22.9918009419513	0.00287780761718751	18.5999999530395	187	-0.000259397638728842	dWE(1).Potential/dt < 1E-06 V/s	
23.0918009416988	0.00287475585937499	18.699999952787	188	0.000122067016491201		
23.1918009414463	0.00289001464843749	18.7999999525346	189	0.000264484988292679		
23.2918009411939	0.00287780761718751	18.8999999522821	190	-0.000411984889069572	dWE(1).Potential/dt < 1E-06 V/s	
23.3918009409414	0.00289001464843749	18.9999999520296	191	0.000417069939430803		
23.4918009406889	0.002880859375	19.0999999517771	192	-0.000350949063431472	dWE(1).Potential/dt < 1E-06 V/s	
23.5918009404364	0.00289306640625001	19.1999999515247	193	0.000371295376680791		
23.691800940184	0.0028839111328125	19.2999999512722	194	-0.000340779020916671	dWE(1).Potential/dt < 1E-06 V/s	
23.7918009399315	0.00287780761718751	19.3999999510197	195	3.56068230757955E-05		
23.891800939679	0.00289001464843749	19.4999999507672	196	0.000264481903286651		
23.9918009394265	0.0028839111328125	19.5999999505148	197	-0.000274656602414325	dWE(1).Potential/dt < 1E-06 V/s	
24.0918009391741	0.00289001464843749	19.6999999502623	198	0.000223792376345955		
24.1918009389216	0.00287780761718751	19.7999999500098	199	-0.000315344572300091	dWE(1).Potential/dt < 1E-06 V/s	
24.2918009386691	0.00287780761718751	19.8999999497573	200	0.000162761192768812		
24.3918009384166	0.0028839111328125	19.9999999495049	201	7.12074397597462E-05		
24.4918009381641	0.0028839111328125	20.0999999492524	202	-7.12074397597462E-05	dWE(1).Potential/dt < 1E-06 V/s	
24.5918009379117	0.002886962890625	20.1999999489999	203	7.62924682931043E-05		
24.6918009376592	0.0028961181640625	20.2999999487474	204	0.000132247936562635		
24.7918009374067	0.00287475585937499	20.399999948495	205	-0.000488289806526154	dWE(1).Potential/dt < 1E-06 V/s	
24.8918009371542	0.002886962890625	20.4999999482425	206	0.000503542541991919		
24.9918009369018	0.00287475585937499	20.59999994799	207	-0.000437418580986559	dWE(1).Potential/dt < 1E-06 V/s	
25.0918009366493	0.0028717041015625	20.6999999477375	208	0.000127155144582503		
25.1918009363968	0.00287780761718751	20.799999947485	209	0.000106817366031464		
25.2918009361443	0.00289001464843749	20.8999999472326	210	0.000142410222906619		
25.3918009358919	0.0028839111328125	20.9999999469801	211	-0.000233966304222122	dWE(1).Potential/dt < 1E-06 V/s	
25.4918009356394	0.002886962890625	21.0999999467276	212	0.000167844671523198		
25.5918009353869	0.002880859375	21.1999999464751	213	-0.00016784155741334	dWE(1).Potential/dt < 1E-06 V/s	
25.6918009351344	0.0028839111328125	21.2999999462227	214	0.000137323644594289		
25.791800934882	0.0028717041015625	21.3999999459702	215	-0.000279743951978162	dWE(1).Potential/dt < 1E-06 V/s	
25.8918009346295	0.00287475585937499	21.4999999457177	216	0.000208538069273345		
25.991800934377	0.0028656005859375	21.5999999454652	217	-0.000244140232098289	dWE(1).Potential/dt < 1E-06 V/s	
26.0918009341245	0.00287475585937499	21.6999999452128	218	0.000284824316622689		
26.1918009338721	0.0028717041015625	21.7999999449603	219	-0.000193276006029919	dWE(1).Potential/dt < 1E-06 V/s	
26.2918009336196	0.002886962890625	21.8999999447078	220	0.000345867912983522		
26.3918009333671	0.00287780761718751	21.9999999444553	221	-0.000356034084688872	dWE(1).Potential/dt < 1E-06 V/s	
26.4918009331146	0.00287475585937499	22.0999999442029	222	0.000101719924714416		
26.5918009328622	0.0028717041015625	22.1999999439504	223	-5.08619013999123E-05	dWE(1).Potential/dt < 1E-06 V/s	
26.6918009326097	0.0028839111328125	22.2999999436979	224	0.000249229924520478		
26.7918009323572	0.00287780761718751	22.3999999434454	225	-0.000264484988292679	dWE(1).Potential/dt < 1E-06 V/s	
26.8918009321047	0.00287780761718751	22.499999943193	226	0.000111899287730921		
26.9918009318523	0.0028656005859375	22.5999999429405	227	-0.000244140232098289	dWE(1).Potential/dt < 1E-06 V/s	
27.0918009315998	0.00286865234375	22.699999942688	228	0.000198361027287319		
27.1918009313473	0.0028717041015625	22.7999999424355	229	-2.03447616513586E-05	dWE(1).Potential/dt < 1E-06 V/s	
27.2918009310948	0.00287780761718751	22.8999999421831	230	8.64726098370738E-05		
27.3918009308424	0.00287780761718751	22.9999999419306	231	-6.10358329140581E-05	dWE(1).Potential/dt < 1E-06 V/s	
27.4918009305899	0.00286254882812501	23.0999999416781	232	-0.000259397638728842	dWE(1).Potential/dt < 1E-06 V/s	
27.5918009303374	0.00287475585937499	23.1999999414256	233	0.000401811732444912		
27.6918009300849	0.0028717041015625	23.2999999411732	234	-0.000249226810410619	dWE(1).Potential/dt < 1E-06 V/s	
27.7918009298324	0.0028656005859375	23.3999999409207	235	-3.55998381564859E-05	dWE(1).Potential/dt < 1E-06 V/s	
27.89180092958	0.00287780761718751	23.4999999406682	236	0.000284828216535971		
27.9918009293275	0.0028717041015625	23.5999999404157	237	-0.000274658930720761	dWE(1).Potential/dt < 1E-06 V/s	
28.091800929075	0.00287475585937499	23.6999999401633	238	0.000167848542332649		
28.1918009288225	0.0028717041015625	23.7999999399108	239	-0.000111900066258386	dWE(1).Potential/dt < 1E-06 V/s	
28.2918009285701	0.0028656005859375	23.8999999396583	240	-6.61169833620079E-05	dWE(1).Potential/dt < 1E-06 V/s	
28.3918009283176	0.002886962890625	23.9999999394058	241	0.000452671316452324		
28.4918009280651	0.00286254882812501	24.0999999391533	242	-0.000717155518941581	dWE(1).Potential/dt < 1E-06 V/s	
28.5918009278126	0.00286865234375	24.1999999389009	243	0.000467933394247666		
28.6918009275602	0.002880859375	24.2999999386484	244	7.12097680661827E-05		
28.7918009273077	0.00286865234375	24.3999999383959	245	-0.000345870241289958	dWE(1).Potential/dt < 1E-06 V/s	
28.8918009270552	0.00287475585937499	24.4999999381434	246	0.000295002915663645		
28.9918009268027	0.00286865234375	24.599999937891	247	-0.000223794704652391	dWE(1).Potential/dt < 1E-06 V/s	
29.0918009265503	0.0028717041015625	24.6999999376385	248	0.000147499900776893		
29.1918009262978	0.00286865234375	24.799999937386	249	-0.000111893859866541	dWE(1).Potential/dt < 1E-06 V/s	
29.2918009260453	0.00286254882812501	24.8999999371335	250	-6.61208614474162E-05	dWE(1).Potential/dt < 1E-06 V/s	
29.3918009257928	0.00287475585937499	24.9999999368811	251	0.000284827430732548		
29.4918009255404	0.00287780761718751	25.0999999366286	252	-0.000106807281554211	dWE(1).Potential/dt < 1E-06 V/s	
29.5918009252879	0.00287475585937499	25.1999999363761	253	-5.08673365402501E-05	dWE(1).Potential/dt < 1E-06 V/s	
29.6918009250354	0.00286865234375	25.2999999361236	254	-6.61193116684444E-05	dWE(1).Potential/dt < 1E-06 V/s	
29.7918009247829	0.00286865234375	25.3999999358712	255	6.10342831350863E-05		
29.8918009245305	0.00287780761718751	25.4999999356187	256	0.000147504557389766		
29.991800924278	0.00285949707031249	25.5999999353662	257	-0.000442509044660255	dWE(1).Potential/dt < 1E-06 V/s	
30.0918009240255	0.00287475585937499	25.6999999351137	258	0.000523884955327958		
30.191800923773	0.00287780761718751	25.7999999348613	259	-0.000183102849405259	dWE(1).Potential/dt < 1E-06 V/s	
30.2918009235206	0.00285949707031249	25.8999999346088	260	-0.000320438906783238	dWE(1).Potential/dt < 1E-06 V/s	
30.3918009232681	0.00285949707031249	25.9999999343563	261	0.000223795475903898		
30.4918009230156	0.0028717041015625	26.0999999341038	262	0.000162759635713883		
30.5918009227631	0.0028717041015625	26.1999999338514	263	-0.000142413322464563	dWE(1).Potential/dt < 1E-06 V/s	
30.6918009225107	0.0028717041015625	26.2999999335989	264	4.0691073081689E-05		
30.7918009222582	0.0028717041015625	26.3999999333464	265	7.76102904165299E-10	dWE(1).Potential/dt < 1E-06 V/s	
30.8918009220057	0.00286254882812501	26.4999999330939	266	-0.000167842343216762	dWE(1).Potential/dt < 1E-06 V/s	
30.9918009217532	0.00285949707031249	26.5999999328415	267	5.08572447870392E-05		
31.0918009215007	0.0028564453125	26.699999932589	268	-5.08619013999123E-05	dWE(1).Potential/dt < 1E-06 V/s	
31.1918009212483	0.00286254882812501	26.7999999323365	269	0.000137334514874965		
31.2918009209958	0.00286865234375	26.899999932084	270	3.05148132611066E-05		
31.3918009207433	0.0028564453125	26.9999999318316	271	-0.000274658930720761	dWE(1).Potential/dt < 1E-06 V/s	
31.4918009204908	0.00285949707031249	27.0999999315791	272	0.000218710454646498		
31.5918009202384	0.00287475585937499	27.1999999313266	273	0.000203447605599649		
31.6918009199859	0.00286865234375	27.2999999310741	274	-0.000279743951978162	dWE(1).Potential/dt < 1E-06 V/s	
31.7918009197334	0.0028656005859375	27.3999999308217	275	6.61224112263881E-05		
31.8918009194809	0.00286254882812501	27.4999999305692	276	-4.0691073081689E-05	dWE(1).Potential/dt < 1E-06 V/s	
31.9918009192285	0.0028533935546875	27.5999999303167	277	-0.000142414879519492	dWE(1).Potential/dt < 1E-06 V/s	
32.091800918976	0.00287475585937499	27.6999999300642	278	0.000488279707496986		
32.1918009187235	0.00285949707031249	27.7999999298117	279	-0.000559491047170013	dWE(1).Potential/dt < 1E-06 V/s	
32.291800918471	0.0028564453125	27.8999999295593	280	0.000193277563084848		
32.3918009182186	0.00286865234375	27.9999999293068	281	0.000208540397579782		
32.4918009179661	0.00286865234375	28.0999999290543	282	-0.000152589593199082	dWE(1).Potential/dt < 1E-06 V/s	
32.5918009177136	0.0028717041015625	28.1999999288018	283	9.66380030149594E-05		
32.6918009174611	0.0028717041015625	28.2999999285494	284	-3.56013915734366E-05	dWE(1).Potential/dt < 1E-06 V/s	
32.7918009172087	0.00286254882812501	28.3999999282969	285	-0.000157669957843609	dWE(1).Potential/dt < 1E-06 V/s	
32.8918009169562	0.00287475585937499	28.4999999280444	286	0.000330601964378729		
32.9918009167037	0.002880859375	28.5999999277919	287	-6.10319548286498E-05	dWE(1).Potential/dt < 1E-06 V/s	
33.0918009164512	0.00285949707031249	28.6999999275395	288	-0.000422167388023809	dWE(1).Potential/dt < 1E-06 V/s	
33.1918009161988	0.00286254882812501	28.799999927287	289	0.000325527042150497		
33.2918009159463	0.00286254882812501	28.8999999270345	290	-0.000106811159639619	dWE(1).Potential/dt < 1E-06 V/s	
33.3918009156938	0.00286865234375	28.999999926782	291	0.000122070116049144		
33.4918009154413	0.00286254882812501	29.0999999265296	292	-0.000183102849405259	dWE(1).Potential/dt < 1E-06 V/s	
33.5918009151889	0.00286254882812501	29.1999999262771	293	9.1553753009066E-05		
33.6918009149364	0.00286254882812501	29.2999999260246	294	-2.03432082344079E-05	dWE(1).Potential/dt < 1E-06 V/s	
33.7918009146839	0.00286254882812501	29.3999999257721	295	1.5522058083306E-09	dWE(1).Potential/dt < 1E-06 V/s	
33.8918009144314	0.00286254882812501	29.4999999255197	296	1.5522058083306E-09	dWE(1).Potential/dt < 1E-06 V/s	
33.991800914179	0.00286254882812501	29.5999999252672	297	1.5522058083306E-09	dWE(1).Potential/dt < 1E-06 V/s	
34.0918009139265	0.00286254882812501	29.6999999250147	298	1.5522058083306E-09	dWE(1).Potential/dt < 1E-06 V/s	
34.191800913674	0.00286254882812501	29.7999999247622	299	1.5522058083306E-09	dWE(1).Potential/dt < 1E-06 V/s	
34.2918009134215	0.002850341796875	29.8999999245098	300	-0.000223795475903898	dWE(1).Potential/dt < 1E-06 V/s	
34.3918009131691	0.0028564453125	29.9999999242573	301	0.000254308746661991		
34.4918009129166	0.0028533935546875	30.0999999240048	302	-0.00016784155741334	dWE(1).Potential/dt < 1E-06 V/s	
34.5918009126641	0.0028533935546875	30.1999999237523	303	5.59469299332704E-05		
34.6918009124116	0.0028564453125	30.2999999234999	304	4.57753230875824E-05		
34.7918009121591	0.00285949707031249	30.3999999232474	305	2.03463132493198E-05		
34.8918009119067	0.0028533935546875	30.4999999229949	306	-0.000137329858262092	dWE(1).Potential/dt < 1E-06 V/s	
34.9918009116542	0.0028656005859375	30.5999999227424	307	0.000305176858091727		
35.0918009114017	0.00285949707031249	30.69999992249	308	-0.000274664373137057	dWE(1).Potential/dt < 1E-06 V/s	
35.1918009111492	0.00286254882812501	30.7999999222375	309	0.000167852427694015		
35.2918009108968	0.0028717041015625	30.899999921985	310	0.000111894631118048		
35.3918009106443	0.00285949707031249	30.9999999217325	311	-0.000320432707667351	dWE(1).Potential/dt < 1E-06 V/s	
35.4918009103918	0.0028533935546875	31.09999992148	312	6.10342831350863E-05		
35.5918009101393	0.0028533935546875	31.1999999212276	313	3.05171415675431E-05		
35.6918009098869	0.0028564453125	31.2999999209751	314	3.56029449903872E-05		
35.7918009096344	0.002838134765625	31.3999999207226	315	-0.000371293834177777	dWE(1).Potential/dt < 1E-06 V/s	
35.8918009093819	0.0028411865234375	31.4999999204701	316	0.000279741623671725		
35.9918009091294	0.002850341796875	31.5999999202177	317	7.1212874900084E-05		
36.091800908877	0.0028564453125	31.6999999199652	318	1.52519742186996E-05		
36.1918009086245	0.00286254882812501	31.7999999197127	319	7.12159744580276E-05		
36.291800908372	0.00286254882812501	31.8999999194602	320	-5.08634548168629E-05	dWE(1).Potential/dt < 1E-06 V/s	
36.3918009081195	0.00286254882812501	31.9999999192078	321	2.03470899577951E-05		
36.4918009078671	0.002850341796875	32.0999999189553	322	-0.000223795475903898	dWE(1).Potential/dt < 1E-06 V/s	
36.5918009076146	0.00285949707031249	32.1999999187028	323	0.000310256436932832		
36.6918009073621	0.0028533935546875	32.2999999184503	324	-0.00025939685292542	dWE(1).Potential/dt < 1E-06 V/s	
36.7918009071096	0.00285949707031249	32.3999999181979	325	0.000213619990972802		
36.8918009068572	0.0028564453125	32.4999999179454	326	-0.000147501457831822	dWE(1).Potential/dt < 1E-06 V/s	
36.9918009066047	0.00284729003906251	32.5999999176929	327	-0.000111892302811611	dWE(1).Potential/dt < 1E-06 V/s	
37.0918009063522	0.00285949707031249	32.6999999174404	328	0.000320429593557492		
37.1918009060997	0.0028564453125	32.799999917188	329	-0.000228881282964721	dWE(1).Potential/dt < 1E-06 V/s	
37.2918009058473	0.002850341796875	32.8999999169355	330	-3.55998381564859E-05	dWE(1).Potential/dt < 1E-06 V/s	
37.3918009055948	0.00284423828124999	32.999999916683	331	-5.08704397361726E-05	dWE(1).Potential/dt < 1E-06 V/s	
37.4918009053423	0.00285949707031249	33.0999999164305	332	0.000330608192598447		
37.5918009050898	0.0028533935546875	33.1999999161781	333	-0.000310261879349127	dWE(1).Potential/dt < 1E-06 V/s	
37.6918009048374	0.00285949707031249	33.2999999159256	334	0.000233965532970615		
37.7918009045849	0.0028533935546875	33.3999999156731	335	-0.000203449162654579	dWE(1).Potential/dt < 1E-06 V/s	
37.8918009043324	0.002850341796875	33.4999999154206	336	3.5604494769359E-05		
37.9918009040799	0.00285949707031249	33.5999999151682	337	0.000183099749847315		
38.0918009038274	0.002850341796875	33.6999999149157	338	-0.000284826644929126	dWE(1).Potential/dt < 1E-06 V/s	
38.191800903575	0.00284423828124999	33.7999999146632	339	2.54243550443789E-05		
38.2918009033225	0.0028533935546875	33.8999999144107	340	0.000208540397579782		
38.39180090307	0.00285949707031249	33.9999999141583	341	-1.52620632434264E-05	dWE(1).Potential/dt < 1E-06 V/s	
38.4918009028175	0.00284729003906251	34.0999999139058	342	-0.000264481903286651	dWE(1).Potential/dt < 1E-06 V/s	
38.5918009025651	0.002850341796875	34.1999999136533	343	0.000218708897591569		
38.6918009023126	0.00284423828124999	34.2999999134008	344	-0.000188197183888406	dWE(1).Potential/dt < 1E-06 V/s	
38.7918009020601	0.002850341796875	34.3999999131483	345	0.000193282219697721		
38.8918009018076	0.00284729003906251	34.4999999128959	346	-0.000147503786138259	dWE(1).Potential/dt < 1E-06 V/s	
38.9918009015552	0.0028564453125	34.5999999126434	347	0.000223795475903898		
39.0918009013027	0.00284729003906251	34.6999999123909	348	-0.000284824316622689	dWE(1).Potential/dt < 1E-06 V/s	
39.1918009010502	0.0028533935546875	34.7999999121384	349	0.00024922369630076		
39.2918009007977	0.0028533935546875	34.899999911886	350	-0.000101724581327289	dWE(1).Potential/dt < 1E-06 V/s	
39.3918009005453	0.00284423828124999	34.9999999116335	351	-0.000147504557389766	dWE(1).Potential/dt < 1E-06 V/s	
39.4918009002928	0.0028533935546875	35.099999911381	352	0.000274659716524184		
39.5918009000403	0.002838134765625	35.1999999111285	353	-0.000417074596043676	dWE(1).Potential/dt < 1E-06 V/s	
39.6918008997878	0.00284729003906251	35.2999999108761	354	0.00037638662615791		
39.7918008995354	0.00283203125000001	35.3999999106236	355	-0.000437417795183137	dWE(1).Potential/dt < 1E-06 V/s	
39.8918008992829	0.002850341796875	35.4999999103711	356	0.000544231268577278		
39.9918008990304	0.0028564453125	35.5999999101186	357	-0.000152592692757025	dWE(1).Potential/dt < 1E-06 V/s	
40.0918008987779	0.0028350830078125	35.6999999098662	358	-0.000401808647438884	dWE(1).Potential/dt < 1E-06 V/s	
40.1918008985255	0.0028564453125	35.7999999096137	359	0.00066120782867074		
40.291800898273	0.0028533935546875	35.8999999093612	360	-0.000376378069631755	dWE(1).Potential/dt < 1E-06 V/s	
40.3918008980205	0.00284423828124999	35.9999999091087	361	-6.10397182754241E-05	dWE(1).Potential/dt < 1E-06 V/s	
40.491800897768	0.0028411865234375	36.0999999088563	362	4.0690298192203E-05		
40.5918008975156	0.0028533935546875	36.1999999086038	363	0.000228885153774172		
40.6918008972631	0.002825927734375	36.2999999083513	364	-0.000656131363939494	dWE(1).Potential/dt < 1E-06 V/s	
40.7918008970106	0.0028533935546875	36.3999999080988	365	0.000864669447764754		
40.8918008967581	0.002838134765625	36.4999999078464	366	-0.00069173431256786	dWE(1).Potential/dt < 1E-06 V/s	
40.9918008965057	0.0028533935546875	36.5999999075939	367	0.000549317104741931		
41.0918008962532	0.002850341796875	36.6999999073414	368	-0.000284829759038985	dWE(1).Potential/dt < 1E-06 V/s	
41.1918008960007	0.002850341796875	36.7999999070889	369	8.64640678628348E-05		
41.2918008957482	0.0028564453125	36.8999999068365	370	0.000101722253020853		
41.3918008954957	0.002850341796875	36.999999906584	371	-0.000183098964043893	dWE(1).Potential/dt < 1E-06 V/s	
41.4918008952433	0.00284729003906251	37.0999999063315	372	3.56006166839506E-05		
41.5918008949908	0.00284423828124999	37.199999906079	373	-4.06918516091537E-05	dWE(1).Potential/dt < 1E-06 V/s	
41.6918008947383	0.00284729003906251	37.2999999058266	374	8.13844744698145E-05		
41.7918008944858	0.002850341796875	37.3999999055741	375	1.0171604117204E-05		
41.8918008942334	0.00284423828124999	37.4999999053216	376	-0.000137334514874965	dWE(1).Potential/dt < 1E-06 V/s	
41.9918008939809	0.002838134765625	37.5999999050691	377	-3.05148132611066E-05	dWE(1).Potential/dt < 1E-06 V/s	
42.0918008937284	0.0028350830078125	37.6999999048167	378	-5.08580205860198E-06	dWE(1).Potential/dt < 1E-06 V/s	
42.1918008934759	0.002838134765625	37.7999999045642	379	7.12043329258449E-05		
42.2918008932235	0.0028533935546875	37.8999999043117	380	0.000233970189583488		
42.391800892971	0.002838134765625	37.9999999040592	381	-0.000447591737611219	dWE(1).Potential/dt < 1E-06 V/s	
42.4918008927185	0.002838134765625	38.0999999038067	382	0.000228882054216228		
42.591800892466	0.0028350830078125	38.1999999035543	383	-0.000106810381112155	dWE(1).Potential/dt < 1E-06 V/s	
42.6918008922136	0.0028411865234375	38.2999999033018	384	0.000147496801218949		
42.7918008919611	0.002850341796875	38.3999999030493	385	8.64733810885809E-05		
42.8918008917086	0.0028411865234375	38.4999999027968	386	-0.000254320388194174	dWE(1).Potential/dt < 1E-06 V/s	
42.9918008914561	0.00284729003906251	38.5999999025444	387	0.000249235366936773		
43.0918008912037	0.0028350830078125	38.6999999022919	388	-0.000325523171341047	dWE(1).Potential/dt < 1E-06 V/s	
43.1918008909512	0.002838134765625	38.7999999020394	389	0.000218706569285132		
43.2918008906987	0.00284729003906251	38.8999999017869	390	9.15568598429672E-05		
43.3918008904462	0.00284423828124999	38.9999999015345	391	-0.000152591921505518	dWE(1).Potential/dt < 1E-06 V/s	
43.4918008901938	0.0028411865234375	39.099999901282	392	1.01731566246599E-05		
43.5918008899413	0.0028350830078125	39.1999999010295	393	-8.6462518083863E-05	dWE(1).Potential/dt < 1E-06 V/s	
43.6918008896888	0.0028350830078125	39.299999900777	394	6.10311799391638E-05		
43.7918008894363	0.0028411865234375	39.3999999005246	395	9.15498749236576E-05		
43.8918008891839	0.00284729003906251	39.4999999002721	396	4.06980580009986E-05		
43.9918008889314	0.00283203125000001	39.5999999000196	397	-0.000330608192598447	dWE(1).Potential/dt < 1E-06 V/s	
44.0918008886789	0.00282897949218749	39.6999998997671	398	0.000142412551213056		
44.1918008884264	0.00284423828124999	39.7999998995147	399	0.000264484988292679		
44.291800888174	0.00284423828124999	39.8999998992622	400	-0.000188194084330462	dWE(1).Potential/dt < 1E-06 V/s	
44.3918008879215	0.0028411865234375	39.9999998990097	401	-5.08657831232995E-06	dWE(1).Potential/dt < 1E-06 V/s	
44.491800887669	0.002850341796875	40.0999998987572	402	0.000203455376322381		
44.5918008874165	0.002838134765625	40.1999998985048	403	-0.000340785220032558	dWE(1).Potential/dt < 1E-06 V/s	
44.6918008871641	0.002850341796875	40.2999998982523	404	0.000396732153603807		
44.7918008869116	0.0028350830078125	40.3999998979998	405	-0.000462853029603139	dWE(1).Potential/dt < 1E-06 V/s	
44.8918008866591	0.0028350830078125	40.4999998977473	406	0.000218708897591569		
44.9918008864066	0.002838134765625	40.5999998974949	407	5.08425000589341E-06		
45.0918008861541	0.0028533935546875	40.6999998972424	408	0.000244142574956641		
45.1918008859017	0.00284423828124999	40.7999998969899	409	-0.000335696327965707	dWE(1).Potential/dt < 1E-06 V/s	
45.2918008856492	0.0028411865234375	40.8999998967374	410	0.000101725359854754		
45.3918008853967	0.00282897949218749	40.999999896485	411	-0.000218708897591569	dWE(1).Potential/dt < 1E-06 V/s	
45.4918008851442	0.0028411865234375	41.0999998962325	412	0.000356037198798731		
45.5918008848918	0.00283203125000001	41.19999989598	413	-0.000350946735125035	dWE(1).Potential/dt < 1E-06 V/s	
45.6918008846393	0.002838134765625	41.2999998957275	414	0.00025939685292542		
45.7918008843868	0.0028228759765625	41.399999895475	415	-0.000381469319108874	dWE(1).Potential/dt < 1E-06 V/s	
45.8918008841343	0.002838134765625	41.4999998952226	416	0.000478108879178762		
45.9918008838819	0.00284423828124999	41.5999998949701	417	-0.000116986644570716	dWE(1).Potential/dt < 1E-06 V/s	
46.0918008836294	0.0028350830078125	41.6999998947176	418	-0.000188189427717589	dWE(1).Potential/dt < 1E-06 V/s	
46.1918008833769	0.002838134765625	41.7999998944651	419	0.000183101292350329		
46.2918008831244	0.0028411865234375	41.8999998942127	420	-1.0171604117204E-05	dWE(1).Potential/dt < 1E-06 V/s	
46.391800882872	0.0028411865234375	41.9999998939602	421	-2.5429011657252E-05	dWE(1).Potential/dt < 1E-06 V/s	
46.4918008826195	0.00284423828124999	42.0999998937077	422	6.61208614474162E-05		
46.591800882367	0.0028411865234375	42.1999998934552	423	-9.15545315365307E-05	dWE(1).Potential/dt < 1E-06 V/s	
46.6918008821145	0.00283203125000001	42.2999998932028	424	-0.000122064688184764	dWE(1).Potential/dt < 1E-06 V/s	
46.7918008818621	0.0028350830078125	42.3999998929503	425	0.000152586479089223		
46.8918008816096	0.002825927734375	42.4999998926978	426	-0.000233972517889924	dWE(1).Potential/dt < 1E-06 V/s	
46.9918008813571	0.002838134765625	42.5999998924453	427	0.000340785220032558		
47.0918008811046	0.002825927734375	42.6999998921929	428	-0.000396732153603807	dWE(1).Potential/dt < 1E-06 V/s	
47.1918008808522	0.00283203125000001	42.7999998919404	429	0.000295009900582954		
47.2918008805997	0.00284423828124999	42.8999998916879	430	0.000111892302811611		
47.3918008803472	0.00282897949218749	42.9999998914354	431	-0.000401815632358193	dWE(1).Potential/dt < 1E-06 V/s	
47.4918008800947	0.00281982421875	43.099999891183	432	5.08642297063489E-05		
47.5918008798423	0.0028350830078125	43.1999998909305	433	0.000335690885549411		
47.6918008795898	0.002838134765625	43.299999890678	434	-0.000152589593199082	dWE(1).Potential/dt < 1E-06 V/s	
47.7918008793373	0.00281982421875	43.3999998904255	435	-0.000320431921863928	dWE(1).Potential/dt < 1E-06 V/s	
47.8918008790848	0.002825927734375	43.4999998901731	436	0.000335688557242975		
47.9918008788324	0.00283203125000001	43.5999998899206	437	-2.03370000235736E-05	dWE(1).Potential/dt < 1E-06 V/s	
48.0918008785799	0.002838134765625	43.6999998896681	438	6.10319548286498E-05		
48.1918008783274	0.002825927734375	43.7999998894156	439	-0.000274658930720761	dWE(1).Potential/dt < 1E-06 V/s	
48.2918008780749	0.00282897949218749	43.8999998891632	440	0.000218710454646498		
48.3918008778224	0.002825927734375	43.9999998889107	441	-0.000132244822452776	dWE(1).Potential/dt < 1E-06 V/s	
48.49180087757	0.002825927734375	44.0999998886582	442	4.57784299214836E-05		
48.5918008773175	0.00282897949218749	44.1999998884057	443	4.57761016150471E-05		
48.691800877065	0.00282897949218749	44.2999998881533	444	-3.56068230757955E-05	dWE(1).Potential/dt < 1E-06 V/s	
48.7918008768125	0.00283203125000001	44.3999998879008	445	6.61247395328246E-05		
48.8918008765601	0.00283203125000001	44.4999998876483	446	-3.56029449903872E-05	dWE(1).Potential/dt < 1E-06 V/s	
48.9918008763076	0.0028350830078125	44.5999998873958	447	6.61224112263881E-05		
49.0918008760551	0.0028228759765625	44.6999998871433	448	-0.000259403081145138	dWE(1).Potential/dt < 1E-06 V/s	
49.1918008758026	0.0028350830078125	44.7999998868909	449	0.00037638662615791		
49.2918008755502	0.002838134765625	44.8999998866384	450	-0.000127160572446883	dWE(1).Potential/dt < 1E-06 V/s	
49.3918008752977	0.00282897949218749	44.9999998863859	451	-0.000162761192768812	dWE(1).Potential/dt < 1E-06 V/s	
49.4918008750452	0.00282897949218749	45.0999998861334	452	0.000116982766485307		
49.5918008747927	0.0028350830078125	45.199999885881	453	8.13821461633779E-05		
49.6918008745403	0.0028350830078125	45.2999998856285	454	-7.12105465936475E-05	dWE(1).Potential/dt < 1E-06 V/s	
49.7918008742878	0.00284423828124999	45.399999885376	455	0.000188187870662659		
49.8918008740353	0.002825927734375	45.4999998851235	456	-0.00044250360224396	dWE(1).Potential/dt < 1E-06 V/s	
49.9918008737828	0.00282897949218749	45.5999998848711	457	0.000300090265227482		
50.0918008735304	0.002825927734375	45.6999998846186	458	-0.000152589593199082	dWE(1).Potential/dt < 1E-06 V/s	
50.1918008732779	0.00281677246093751	45.7999998843661	459	-0.000122064688184764	dWE(1).Potential/dt < 1E-06 V/s	
50.2918008730254	0.002825927734375	45.8999998841136	460	0.000264481903286651		
50.3918008727729	0.0028411865234375	45.9999998838612	461	0.000142418764880858		
50.4918008725205	0.0028228759765625	46.0999998836087	462	-0.000483193900436163	dWE(1).Potential/dt < 1E-06 V/s	
50.591800872268	0.0028350830078125	46.1999998833562	463	0.00048828125		
50.6918008720155	0.00281982421875	46.2999998831037	464	-0.000483197771245614	dWE(1).Potential/dt < 1E-06 V/s	
50.791800871763	0.002825927734375	46.3999998828513	465	0.000330604292685166		
50.8918008715106	0.00283203125000001	46.4999998825988	466	-1.01646191978944E-05	dWE(1).Potential/dt < 1E-06 V/s	
50.9918008712581	0.00282897949218749	46.5999998823463	467	-0.000106817366031464	dWE(1).Potential/dt < 1E-06 V/s	
51.0918008710056	0.00283203125000001	46.6999998820938	468	0.000111902394564822		
51.1918008707531	0.002838134765625	46.7999998818414	469	6.61193116684444E-05		
51.2918008705007	0.0028350830078125	46.8999998815889	470	-0.000116981987957843	dWE(1).Potential/dt < 1E-06 V/s	
51.3918008702482	0.0028350830078125	46.9999998813364	471	5.59461514058057E-05		
51.4918008699957	0.00282897949218749	47.0999998810839	472	-0.000122074779937975	dWE(1).Potential/dt < 1E-06 V/s	
51.5918008697432	0.0028350830078125	47.1999998808315	473	0.000183109834324569		
51.6918008694907	0.00283203125000001	47.299999880579	474	-0.000147503786138259	dWE(1).Potential/dt < 1E-06 V/s	
51.7918008692383	0.00281982421875	47.3999998803265	475	-0.000167844671523198	dWE(1).Potential/dt < 1E-06 V/s	
51.8918008689858	0.00283203125000001	47.499999880074	476	0.000356037984602153		
51.9918008687333	0.002825927734375	47.5999998798216	477	-0.000295004458166659	dWE(1).Potential/dt < 1E-06 V/s	
52.0918008684808	0.00283203125000001	47.6999998795691	478	0.000223802460823208		
52.1918008682284	0.002825927734375	47.7999998793166	479	-0.000203455376322381	dWE(1).Potential/dt < 1E-06 V/s	
52.2918008679759	0.00281677246093751	47.8999998790641	480	-7.62870331527665E-05	dWE(1).Potential/dt < 1E-06 V/s	
52.3918008677234	0.00281982421875	47.9999998788117	481	0.000142413322464563		
52.4918008674709	0.002838134765625	48.0999998785592	482	0.000269569252850488		
52.5918008672185	0.00281677246093751	48.1999998783067	483	-0.000595089280977845	dWE(1).Potential/dt < 1E-06 V/s	
52.691800866966	0.002838134765625	48.2999998780542	484	0.000701903540175408		
52.7918008667135	0.00281677246093751	48.3999998778017	485	-0.000712074397597462	dWE(1).Potential/dt < 1E-06 V/s	
52.891800866461	0.00281982421875	48.4999998775493	486	0.000376383512048051		
52.9918008662086	0.00282897949218749	48.5999998772968	487	6.10296265222132E-05		
53.0918008659561	0.00283203125000001	48.6999998770443	488	-4.06848666898441E-05	dWE(1).Potential/dt < 1E-06 V/s	
53.1918008657036	0.002825927734375	48.7999998767918	489	-0.00011698742309818	dWE(1).Potential/dt < 1E-06 V/s	
53.2918008654511	0.00282897949218749	48.8999998765394	490	0.000137331400765106		
53.3918008651987	0.002825927734375	48.9999998762869	491	-0.000111900066258386	dWE(1).Potential/dt < 1E-06 V/s	
53.4918008649462	0.00281982421875	49.0999998760344	492	-6.61169833620079E-05	dWE(1).Potential/dt < 1E-06 V/s	
53.5918008646937	0.0028228759765625	49.1999998757819	493	0.000116978881123941		
53.6918008644412	0.00282897949218749	49.2999998755295	494	5.59484797122423E-05		
53.7918008641888	0.0028228759765625	49.399999875277	495	-0.000172932021087036	dWE(1).Potential/dt < 1E-06 V/s	
53.8918008639363	0.00282897949218749	49.4999998750245	496	0.000203447605599649		
53.9918008636838	0.00281677246093751	49.599999874772	497	-0.000315344572300091	dWE(1).Potential/dt < 1E-06 V/s	
54.0918008634313	0.0028228759765625	49.6999998745196	498	0.000274656602414325		
54.1918008631789	0.0028106689453125	49.7999998742671	499	-0.00033569399965927	dWE(1).Potential/dt < 1E-06 V/s	
54.2918008629264	0.0028228759765625	49.8999998740146	500	0.00038655978278257		
54.3918008626739	0.0028076171875	49.9999998737621	501	-0.000462852243799716	dWE(1).Potential/dt < 1E-06 V/s	
54.4918008624214	0.0028228759765625	50.0999998735097	502	0.00049845443572849		
54.591800862169	0.00281677246093751	50.1999998732572	503	-0.000340777449309826	dWE(1).Potential/dt < 1E-06 V/s	
54.6918008619165	0.00281982421875	50.2999998730047	504	0.000178019370650873		
54.791800861664	0.00281677246093751	50.3999998727522	505	-0.000111898516479414	dWE(1).Potential/dt < 1E-06 V/s	
54.8918008614115	0.002825927734375	50.4999998724998	506	0.000213622319279239		
54.991800861159	0.00283203125000001	50.5999998722473	507	-5.07959339302033E-06	dWE(1).Potential/dt < 1E-06 V/s	
55.0918008609066	0.00281677246093751	50.6999998719948	508	-0.00032043582177721	dWE(1).Potential/dt < 1E-06 V/s	
55.1918008606541	0.00281677246093751	50.7999998717423	509	0.000198366469703615		
55.2918008604016	0.0028076171875	50.8999998714899	510	-0.000218710454646498	dWE(1).Potential/dt < 1E-06 V/s	
55.3918008601491	0.00281982421875	50.9999998712374	511	0.00033060897840187		
55.4918008598967	0.00281982421875	51.0999998709849	512	-0.000172935906448402	dWE(1).Potential/dt < 1E-06 V/s	
55.5918008596442	0.002825927734375	51.1999998707324	513	0.000152584936586209		
55.6918008593917	0.002825927734375	51.29999987048	514	-7.12035616743378E-05	dWE(1).Potential/dt < 1E-06 V/s	
55.7918008591392	0.00283203125000001	51.3999998702275	515	0.000132247150759213		
55.8918008588868	0.00283203125000001	51.499999869975	516	-7.12082182872109E-05	dWE(1).Potential/dt < 1E-06 V/s	
55.9918008586343	0.00283203125000001	51.5999998697225	517	2.03470899577951E-05		
56.0918008583818	0.0028106689453125	51.69999986947	518	-0.00039164480403997	dWE(1).Potential/dt < 1E-06 V/s	
56.1918008581293	0.0028106689453125	51.7999998692176	519	0.000249229924520478		
56.2918008578769	0.00281372070312499	51.8999998689651	520	-1.52597349369898E-05	dWE(1).Potential/dt < 1E-06 V/s	
56.3918008576244	0.0028228759765625	51.9999998687126	521	0.00013224249414634		
56.4918008573719	0.002825927734375	52.0999998684601	522	-4.06918516091537E-05	dWE(1).Potential/dt < 1E-06 V/s	
56.5918008571194	0.00281982421875	52.1999998682077	523	-0.000116978881123941	dWE(1).Potential/dt < 1E-06 V/s	
56.691800856867	0.002825927734375	52.2999998679552	524	0.000193271349417046		
56.7918008566145	0.00281372070312499	52.3999998677027	525	-0.000315345358103514	dWE(1).Potential/dt < 1E-06 V/s	
56.891800856362	0.002825927734375	52.4999998674502	526	0.000386554340366274		
56.9918008561095	0.00283203125000001	52.5999998671978	527	-7.12020046194084E-05	dWE(1).Potential/dt < 1E-06 V/s	
57.0918008558571	0.00281677246093751	52.6999998669453	528	-0.00031026266515255	dWE(1).Potential/dt < 1E-06 V/s	
57.1918008556046	0.0028106689453125	52.7999998666928	529	8.64648463902995E-05		
57.2918008553521	0.00281982421875	52.8999998664403	530	0.000188197183888406		
57.3918008550996	0.002825927734375	52.9999998661879	531	-1.52659431478241E-05	dWE(1).Potential/dt < 1E-06 V/s	
57.4918008548472	0.0028228759765625	53.0999998659354	532	-9.66333464020863E-05	dWE(1).Potential/dt < 1E-06 V/s	
57.5918008545947	0.00281982421875	53.1999998656829	533	-7.76102904165299E-10	dWE(1).Potential/dt < 1E-06 V/s	
57.6918008543422	0.00281372070312499	53.2999998654304	534	-8.64726098370738E-05	dWE(1).Potential/dt < 1E-06 V/s	
57.7918008540897	0.00281677246093751	53.399999865178	535	0.000116989751404617		
57.8918008538373	0.0028228759765625	53.4999998649255	536	5.59469299332704E-05		
57.9918008535848	0.00281677246093751	53.599999864673	537	-0.000172929692780599	dWE(1).Potential/dt < 1E-06 V/s	
58.0918008533323	0.00281677246093751	53.6999998644205	538	9.1553753009066E-05		
58.1918008530798	0.00281677246093751	53.7999998641681	539	-2.03432082344079E-05	dWE(1).Potential/dt < 1E-06 V/s	
58.2918008528274	0.00281982421875	53.8999998639156	540	5.5949258239707E-05		
58.3918008525749	0.0028228759765625	53.9999998636631	541	2.03416566364467E-05		
58.4918008523224	0.00281372070312499	54.0999998634106	542	-0.000193279105587862	dWE(1).Potential/dt < 1E-06 V/s	
58.5918008520699	0.00281677246093751	54.1999998631582	543	0.000172936677699909		
58.6918008518174	0.0028228759765625	54.2999998629057	544	4.57745481980965E-05		
58.791800851565	0.00281677246093751	54.3999998626532	545	-0.000172929692780599	dWE(1).Potential/dt < 1E-06 V/s	
58.8918008513125	0.00282897949218749	54.4999998624007	546	0.000315344572300091		
58.99180085106	0.002838134765625	54.5999998621483	547	5.08813036503852E-06		
59.0918008508075	0.0028228759765625	54.6999998618958	548	-0.00034586715628393	dWE(1).Potential/dt < 1E-06 V/s	
59.1918008505551	0.00281372070312499	54.7999998616433	549	4.06879698857665E-05		
59.2918008503026	0.00281982421875	54.8999998613908	550	0.000167849328136072		
59.3918008500501	0.00281982421875	54.9999998611383	551	-0.000101728459412698	dWE(1).Potential/dt < 1E-06 V/s	
59.4918008497976	0.0028076171875	55.0999998608859	552	-0.000203452262212522	dWE(1).Potential/dt < 1E-06 V/s	
59.5918008495452	0.00281372070312499	55.1999998606334	553	0.000254312617471442		
59.6918008492927	0.00281677246093751	55.2999998603809	554	-5.59453765163198E-05	dWE(1).Potential/dt < 1E-06 V/s	
59.7918008490402	0.00281677246093751	55.3999998601284	555	-1.52581824295339E-05	dWE(1).Potential/dt < 1E-06 V/s	
59.8918008487877	0.0028106689453125	55.499999859876	556	-0.000101726909633726	dWE(1).Potential/dt < 1E-06 V/s	
59.9918008485353	0.0028106689453125	55.5999998596235	557	7.12105465936475E-05		
60.0918008482828	0.0028045654296875	55.699999859371	558	-0.000132240165839903	dWE(1).Potential/dt < 1E-06 V/s	
60.1918008480303	0.0028228759765625	55.7999998591185	559	0.000406895997002721		
60.2918008477778	0.002825927734375	55.8999998588661	560	-0.000178018599399365	dWE(1).Potential/dt < 1E-06 V/s	
60.3918008475254	0.00281982421875	55.9999998586136	561	-8.64617395563982E-05	dWE(1).Potential/dt < 1E-06 V/s	
60.4918008472729	0.00281982421875	56.0999998583611	562	8.1375939771533E-05		
60.5918008470204	0.00280151367187501	56.1999998581086	563	-0.000356037984602153	dWE(1).Potential/dt < 1E-06 V/s	
60.6918008467679	0.00281677246093751	56.2999998578562	564	0.000493370927870274		
60.7918008465155	0.00281677246093751	56.3999998576037	565	-0.000239052882534452	dWE(1).Potential/dt < 1E-06 V/s	
60.891800846263	0.00281677246093751	56.4999998573512	566	5.08642297063489E-05		
60.9918008460105	0.00281372070312499	56.5999998570987	567	-5.59523614356294E-05	dWE(1).Potential/dt < 1E-06 V/s	
61.091800845758	0.00281982421875	56.6999998568463	568	0.000147504557389766		
61.1918008455056	0.0028228759765625	56.7999998565938	569	-2.54359965765616E-05	dWE(1).Potential/dt < 1E-06 V/s	
61.2918008452531	0.0028106689453125	56.8999998563413	570	-0.000239053653785959	dWE(1).Potential/dt < 1E-06 V/s	
61.3918008450006	0.0028106689453125	56.9999998560888	571	0.000152590364450589		
61.4918008447481	0.00281677246093751	57.0999998558364	572	7.12120963726193E-05		
61.5918008444957	0.0028106689453125	57.1999998555839	573	-0.000183109834324569	dWE(1).Potential/dt < 1E-06 V/s	
61.6918008442432	0.0028045654296875	57.2999998553314	574	-2.03393283300102E-05	dWE(1).Potential/dt < 1E-06 V/s	
61.7918008439907	0.0028045654296875	57.3999998550789	575	5.0858023314504E-05		
61.8918008437382	0.0028106689453125	57.4999998548265	576	9.15498749236576E-05		
61.9918008434857	0.0028076171875	57.599999854574	577	-0.000127151259221137	dWE(1).Potential/dt < 1E-06 V/s	
62.0918008432333	0.0028228759765625	57.6999998543215	578	0.000335691671352834		
62.1918008429808	0.0028106689453125	57.799999854069	579	-0.000411988788982853	dWE(1).Potential/dt < 1E-06 V/s	
62.2918008427283	0.002825927734375	57.8999998538166	580	0.000473025400424376		
62.3918008424758	0.00281372070312499	57.9999998535641	581	-0.000442505930550396	dWE(1).Potential/dt < 1E-06 V/s	
62.4918008422234	0.0028106689453125	58.0999998533116	582	0.000137327529955655		
62.5918008419709	0.0028106689453125	58.1999998530591	583	-5.08425000589341E-06	dWE(1).Potential/dt < 1E-06 V/s	
62.6918008417184	0.0028076171875	58.2999998528067	584	-6.61193116684444E-05	dWE(1).Potential/dt < 1E-06 V/s	
62.7918008414659	0.00279846191406249	58.3999998525542	585	-0.000132247150759213	dWE(1).Potential/dt < 1E-06 V/s	
62.8918008412135	0.0028045654296875	58.4999998523017	586	0.000208539626328275		
62.991800840961	0.0028106689453125	58.5999998520492	587	1.01669475043309E-05		
63.0918008407085	0.0028045654296875	58.6999998517967	588	-0.000162753436597995	dWE(1).Potential/dt < 1E-06 V/s	
63.191800840456	0.0028045654296875	58.7999998515443	589	9.15483178687282E-05		
63.2918008402036	0.0028076171875	58.8999998512918	590	3.56021664629225E-05		
63.3918008399511	0.00280151367187501	58.9999998510393	591	-0.000147497572470456	dWE(1).Potential/dt < 1E-06 V/s	
63.4918008396986	0.0028076171875	59.0999998507868	592	0.000193276777281426		
63.5918008394461	0.0028106689453125	59.1999998505344	593	-3.5604494769359E-05	dWE(1).Potential/dt < 1E-06 V/s	
63.6918008391937	0.00279541015625	59.2999998502819	594	-0.00029500137316063	dWE(1).Potential/dt < 1E-06 V/s	
63.7918008389412	0.0028076171875	59.3999998500294	595	0.000411989574786276		
63.8918008386887	0.00279541015625	59.4999998497769	596	-0.000417076924350113	dWE(1).Potential/dt < 1E-06 V/s	
63.9918008384362	0.0028076171875	59.5999998495245	597	0.000406905310228467		
64.0918008381838	0.00281982421875	59.699999849272	598	4.06895233027171E-05		
64.1918008379313	0.0028076171875	59.7999998490195	599	-0.000325524713844061	dWE(1).Potential/dt < 1E-06 V/s	
64.2918008376788	0.0028106689453125	59.899999848767	600	0.000239055210840888		
