Time (s)	WE(1).Potential (V)	Corrected time (s)	Index	dWE(1).Potential/dt (V/s)	OCP value (V)
1.25574399682955	0.005206298828125	0	1	0	0.00534267051547181
1.35574399657708	0.00519409179687499	0.0999999997475243	2	-0.000122073077363893	
1.4557439963246	0.005206298828125	0.199999999495049	3	0.000244146154727787	
1.55574399607212	0.0052001953125	0.299999999242573	4	-0.000295014993753284	
1.65574399581965	0.0052154541015625	0.399999998990097	5	0.000391641224268824	
1.75574399556717	0.005206298828125	0.499999998737621	6	-0.000366205262253061	
1.8557439953147	0.0052032470703125	0.599999998485146	7	0.000101722129329573	
1.95574399506222	0.0052001953125	0.69999999823267	8	-5.08657212776598E-05	
2.05574399480975	0.00520935058593749	0.799999997980194	9	0.000193277330254205	
2.15574399455727	0.0052032470703125	0.899999997727718	10	-0.000228875578613952	
2.25574399430479	0.00520935058593749	0.999999997475243	11	0.000213617415283807	
2.35574399405232	0.00521240234375001	1.09999999722277	12	-3.55935881088953E-05	
2.45574399379984	0.005218505859375	1.19999999697029	13	9.66278021223843E-05	
2.55574399354737	0.00520935058593749	1.29999999671782	14	-0.000228880235226825	
2.65574399329489	0.00518798828125	1.39999999646534	15	-0.000264478469034657	
2.75574399304242	0.0052154541015625	1.49999999621286	16	0.000722240481991321	
2.85574399278994	0.00519714355468751	1.59999999596039	17	-0.000727330159861594	
2.95574399253746	0.0052032470703125	1.69999999570791	18	0.000417064788052812	
3.05574399228499	0.00520935058593749	1.79999999545544	19	-2.03431845875457E-05	
3.15574399203251	0.00519714355468751	1.89999999520296	20	-0.000274648511549458	
3.25574399178004	0.005206298828125	1.99999999495049	21	0.000330600800225511	
3.35574399152756	0.0052001953125	2.09999999469801	22	-0.000259402761003003	
3.45574399127509	0.00520935058593749	2.19999999444553	23	0.000269572803517804	
3.55574399102261	0.00519714355468751	2.29999999419306	24	-0.000350943999364972	
3.65574399077013	0.0052032470703125	2.39999999394058	25	0.000284820096567273	
3.75574399051766	0.00519714355468751	2.49999999368811	26	-0.000223789000301622	
3.85574399026518	0.0052032470703125	2.59999999343563	27	0.000203442716156133	
3.95574399001271	0.00520935058593749	2.69999999318316	28	2.03462896024575E-05	
4.05574398976023	0.0052001953125	2.79999999293068	29	-0.000218707078602165	
4.15574398950776	0.00521240234375001	2.8999999926782	30	0.000350953312590718	
4.25574398925528	0.00520935058593749	2.99999999242573	31	-0.000228892648010515	
4.3557439890028	0.0052032470703125	3.09999999217325	32	-3.55920346919447E-05	
4.45574398875033	0.005206298828125	3.19999999192078	33	0.000116984949272592	
4.55574398849785	0.00519714355468751	3.2999999916683	34	-0.000223795213969424	
4.65574398824538	0.005206298828125	3.39999999141583	35	0.000284829409793019	
4.7557439879929	0.00520935058593749	3.49999999116335	36	-8.13820515759289E-05	
4.85574398774042	0.0052001953125	3.59999999091087	37	-0.000172929489053786	
4.95574398748795	0.00519714355468751	3.6999999906584	38	6.1035760154482E-05	
5.05574398723547	0.005206298828125	3.79999999040592	39	0.000172929489053786	
5.155743986983	0.0052001953125	3.89999999015345	40	-0.000228884891839698	
5.25574398673052	0.00522766113281251	3.99999998990097	41	0.000605271081440151	
5.35574398647805	0.00520935058593749	4.0999999896485	42	-0.000676484603900462	
5.45574398622557	0.0052001953125	4.19999998939602	43	0.000137335897306912	
5.55574398597309	0.00520935058593749	4.29999998914354	44	0.000213618957786821	
5.65574398572062	0.0052032470703125	4.39999998889107	45	-0.000249220320256427	
5.75574398546814	0.005206298828125	4.49999998863859	46	0.000157675982336514	
5.85574398521567	0.0052032470703125	4.59999998838612	47	-0.000111899935291149	
5.95574398496319	0.005206298828125	4.69999998813364	48	0.00010173144255532	
6.05574398471072	0.00519714355468751	4.79999998788117	49	-0.000213623614399694	
6.15574398445824	0.00520935058593749	4.89999998762869	50	0.000340770842740312	
6.25574398420576	0.0052154541015625	4.99999998737621	51	-6.10295537626371E-05	
6.35574398395329	0.005206298828125	5.09999998712374	52	-0.000198360794456676	
6.45574398370081	0.00520935058593749	5.19999998687126	53	0.000183099531568587	
6.55574398344834	0.00521240234375001	5.29999998661879	54	-1.01607265605708E-05	
6.65574398319586	0.0052032470703125	5.39999998636631	55	-0.000193289743037894	
6.75574398294339	0.005206298828125	5.49999998611383	56	0.000172941901837476	
6.85574398269091	0.005206298828125	5.59999998586136	57	-6.61192316329107E-05	
6.95574398243843	0.00520935058593749	5.69999998560888	58	6.61176818539388E-05	
7.05574398218596	0.0052154541015625	5.79999998535641	59	7.62970303185284E-05	
7.15574398193348	0.0052001953125	5.89999998510393	60	-0.000340786384185776	
7.25574398168101	0.00520935058593749	5.99999998485146	61	0.000366209918865934	
7.35574398142853	0.00521240234375001	6.09999998459898	62	-0.000101715922937728	
7.45574398117606	0.0052154541015625	6.1999999843465	63	5.08470948261674E-05	
7.55574398092358	0.0052154541015625	6.29999998409403	64	-2.54297574429074E-05	
7.6557439806711	0.00520935058593749	6.39999998384155	65	-0.000101726785942446	
7.75574398041863	0.0052154541015625	6.49999998358908	66	0.000183107287739404	
7.85574398016615	0.00520935058593749	6.5999999833366	67	-0.000203453571884893	
7.95574397991368	0.00520935058593749	6.69999998308413	68	9.1556750703603E-05	
8.0557439796612	0.005218505859375	6.79999998283165	69	0.000147505939821713	
8.15574397940873	0.005206298828125	6.89999998257917	70	-0.000330605456838384	
8.25574397915625	0.0052154541015625	6.9999999823267	71	0.000340772414347157	
8.35574397890377	0.00521240234375001	7.09999998207422	72	-0.000203444258659147	
8.4557439786513	0.00522460937499999	7.19999998182175	73	0.000289905117824674	
8.55574397839882	0.00522460937499999	7.29999998156927	74	-0.000152578548295423	
8.65574397814635	0.0052154541015625	7.3999999813168	75	-0.000127158098621294	
8.75574397789387	0.00519409179687499	7.49999998106432	76	-0.000284834066405892	
8.8557439776414	0.0052154541015625	7.59999998081184	77	0.000610352959483862	
8.95574397738892	0.00520935058593749	7.69999998055937	78	-0.000432335364166647	
9.05574397713644	0.0052032470703125	7.79999998030689	79	3.05240901070647E-05	
9.15574397688397	0.0052001953125	7.89999998005442	80	-5.09433311890461E-06	
9.25574397663149	0.005218505859375	7.99999997980194	81	0.000350954855093732	
9.35574397637902	0.0052215576171875	8.09999997954947	82	-0.000167842910741456	
9.45574397612654	0.00520935058593749	8.19999997929699	83	-0.000198368550627492	
9.55574397587407	0.0052215576171875	8.29999997904451	84	0.000376397045329213	
9.65574397562159	0.005218505859375	8.39999997879204	85	-0.000239061133470386	
9.75574397536911	0.00521240234375001	8.49999997853956	86	-3.55997981387191E-05	
9.85574397511664	0.00520935058593749	8.59999997828709	87	5.07570666741231E-06	
9.95574397486416	0.00520935058593749	8.69999997803461	88	1.52674783748807E-05	
10.0557439746117	0.005218505859375	8.79999997778214	89	0.000157677524839528	
10.1557439743592	0.0052215576171875	8.89999997752966	90	-5.08610646647867E-05	
10.2557439741067	0.005230712890625	8.99999997727718	91	0.000162753232871182	
10.3557439738543	0.005218505859375	9.09999997702471	92	-0.00032043075771071	
10.4557439736018	0.005206298828125	9.19999997677223	93	-5.08595148858149E-05	
10.5557439733493	0.00522460937499999	9.29999997651976	94	0.00043741415720433	
10.6557439730968	0.00520935058593749	9.39999997626728	95	-0.00053405127255246	
10.7557439728444	0.005218505859375	9.49999997601481	96	0.000406904058763757	
10.8557439725919	0.005218505859375	9.59999997576233	97	-0.000157677524839528	
10.9557439723394	0.005206298828125	9.69999997550985	98	-0.000193272673641331	
11.0557439720869	0.0052215576171875	9.79999997525738	99	0.000422162207541987	
11.1557439718345	0.005230712890625	9.8999999750049	100	-5.0868828111561E-05	
11.255743971582	0.005230712890625	9.99999997475243	101	-5.59507425350603E-05	
11.3557439713295	0.005230712890625	10.0999999745	102	3.05132252833573E-05	
11.455743971077	0.0052154541015625	10.1999999742475	103	-0.000279747502645478	
11.5557439708246	0.00522460937499999	10.299999973995	104	0.000345865177223459	
11.6557439705721	0.00520935058593749	10.3999999737425	105	-0.00043741415720433	
11.7557439703196	0.005206298828125	10.49999997349	106	0.000152597160195	
11.8557439700671	0.005218505859375	10.5999999732376	107	0.000208530836971477	
11.9557439698146	0.005218505859375	10.6999999729851	108	-0.00015258630446624	
12.0557439695622	0.00522766113281251	10.7999999727326	109	0.000208538593142293	
12.1557439693097	0.0052154541015625	10.8999999724801	110	-0.000330619426677004	
12.2557439690572	0.00522460937499999	10.9999999722277	111	0.000340783270075917	
12.3557439688047	0.0052154541015625	11.0999999719752	112	-0.000315347308060154	
12.4557439685523	0.0052215576171875	11.1999999717227	113	0.000249231175985187	
12.5557439682998	0.00521240234375001	11.2999999714702	114	-0.000269572803517804	
12.6557439680473	0.005230712890625	11.3999999712178	115	0.000462839263491333	
12.7557439677948	0.00522766113281251	11.4999999709653	116	-0.000300081388559192	
12.8557439675424	0.005218505859375	11.5999999707128	117	-7.1216665674001E-05	
12.9557439672899	0.00521240234375001	11.6999999704603	118	-1.52519560288056E-05	
13.0557439670374	0.0052215576171875	11.7999999702079	119	0.00020853393652942	
13.1557439667849	0.00522460937499999	11.8999999699554	120	-7.12089095031843E-05	
13.2557439665325	0.00521240234375001	11.9999999697029	121	-0.000228870922001079	
13.35574396628	0.0052215576171875	12.0999999694504	122	0.000320427672704682	
13.4557439660275	0.00523986816406249	12.199999969198	123	0.000188190751941875	
13.555743965775	0.00522460937499999	12.2999999689455	124	-0.000462843920104206	
13.6557439655226	0.0052215576171875	12.399999968693	125	0.000183113501407206	
13.7557439652701	0.00522460937499999	12.4999999684405	126	4.06817125622183E-05	
13.8557439650176	0.005230712890625	12.5999999681881	127	6.61254380247556E-05	
13.9557439647651	0.0052337646484375	12.6999999679356	128	-5.08812445332296E-06	
14.0557439645127	0.00522460937499999	12.7999999676831	129	-0.000183108844794333	
14.1557439642602	0.00522460937499999	12.8999999674306	130	0.000116989605885465	
14.2557439640077	0.005230712890625	12.9999999671782	131	8.13789447420277E-05	
14.3557439637552	0.00522766113281251	13.0999999669257	132	-0.00012715499906335	
14.4557439635028	0.0052215576171875	13.1999999666732	133	-5.59522959520109E-05	
14.5557439632503	0.00522460937499999	13.2999999664207	134	0.00011698339949362	
14.6557439629978	0.00522460937499999	13.3999999661683	135	-5.59429827262647E-05	
14.7557439627453	0.0052154541015625	13.4999999659158	136	-0.000157675982336514	
14.8557439624929	0.005230712890625	13.5999999656633	137	0.000386550003895536	
14.9557439622404	0.0052215576171875	13.6999999654108	138	-0.000376376847270876	
15.0557439619879	0.00522460937499999	13.7999999651583	139	0.000213617415283807	
15.1557439617354	0.0052337646484375	13.8999999649059	140	0.000101734549389221	
15.2557439614829	0.005230712890625	13.9999999646534	141	-0.000152597160195	
15.3557439612305	0.005230712890625	14.0999999644009	142	6.61192316329107E-05	
15.455743960978	0.00522766113281251	14.1999999641484	143	-6.61176818539388E-05	
15.5557439607255	0.00522460937499999	14.299999963896	144	-2.03556028282037E-05	
15.655743960473	0.0052337646484375	14.3999999636435	145	0.000193289743037894	
15.7557439602206	0.005218505859375	14.499999963391	146	-0.000396732444642112	
15.8557439599681	0.005230712890625	14.5999999631385	147	0.000432327593443915	
15.9557439597156	0.0052337646484375	14.6999999628861	148	-0.000137326584081165	
16.0557439594631	0.00522460937499999	14.7999999626336	149	-0.000162764103151858	
16.1557439592107	0.005230712890625	14.8999999623811	150	0.000228884891839698	
16.2557439589582	0.005218505859375	14.9999999621286	151	-0.000325522007187828	
16.3557439587057	0.00522460937499999	15.0999999618762	152	0.000274654710665345	
16.4557439584532	0.0052337646484375	15.1999999616237	153	5.5956952564884E-05	
16.5557439582008	0.00523986816406249	15.2999999613712	154	2.54251008300344E-05	
16.6557439579483	0.00523681640625	15.3999999611187	155	-9.66262450674549E-05	
16.7557439576958	0.00522460937499999	15.4999999608663	156	-0.000167855338077061	
16.8557439574433	0.005230712890625	15.5999999606138	157	0.000244144612224773	
16.9557439571909	0.005230712890625	15.6999999603613	158	-0.000111904591904022	
17.0557439569384	0.00523681640625	15.7999999601088	159	0.000132249318994582	
17.1557439566859	0.00523681640625	15.8999999598564	160	-7.1205802669283E-05	
17.2557439564334	0.00522766113281251	15.9999999596039	161	-0.00014749972615391	
17.355743956181	0.00523986816406249	16.0999999593514	162	0.000330597715219483	
17.4557439559285	0.00523986816406249	16.1999999590989	163	-0.000172924832440913	
17.555743955676	0.00522460937499999	16.2999999588465	164	-0.00023905337729957	
17.6557439554235	0.0052337646484375	16.399999958594	165	0.000345869833836332	
17.7557439551711	0.00523986816406249	16.4999999583415	166	-4.57822534372099E-05	
17.8557439549186	0.00524291992187501	16.599999958089	167	1.5269029972842E-05	
17.9557439546661	0.00524291992187501	16.6999999578366	168	-1.52674783748807E-05	
18.0557439544136	0.00523986816406249	16.7999999575841	169	-4.57822534372099E-05	
18.1557439541612	0.005230712890625	16.8999999573316	170	-0.000132236906210892	
18.2557439539087	0.00523986816406249	16.9999999570791	171	0.000264481583144516	
18.3557439536562	0.00522766113281251	17.0999999568267	172	-0.000361115584382787	
18.4557439534037	0.00523681640625	17.1999999565742	173	0.000340773956850171	
18.5557439531513	0.0052459716796875	17.2999999563217	174	2.03416329895845E-05	
18.6557439528988	0.00523681640625	17.3999999560692	175	-0.000244132184889168	
18.7557439526463	0.0052337646484375	17.4999999558167	176	8.1375845184084E-05	
18.8557439523938	0.0052337646484375	17.5999999555643	177	5.08812445332296E-06	
18.9557439521413	0.00524291992187501	17.6999999553118	178	0.000157675982336514	
19.0557439518889	0.00524291992187501	17.7999999550593	179	-0.00010681646381272	
19.1557439516364	0.00523681640625	17.8999999548068	180	-8.13789447420277E-05	
19.2557439513839	0.00524291992187501	17.9999999545544	181	0.000183108844794333	
19.3557439511314	0.00524291992187501	18.0999999543019	182	-9.1556750703603E-05	
19.455743950879	0.00523681640625	18.1999999540494	183	-9.155209409073E-05	
19.5557439506265	0.0052337646484375	18.2999999537969	184	1.52597167470958E-05	
19.655743950374	0.00524291992187501	18.3999999535445	185	0.000183108844794333	
19.7557439501215	0.0052490234375	18.499999953292	186	-5.09433311890461E-06	
19.8557439498691	0.0052520751953125	18.5999999530395	187	1.52674783748807E-05	
19.9557439496166	0.00523986816406249	18.699999952787	188	-0.000239059576415457	
20.0557439493641	0.0052459716796875	18.7999999525346	189	0.000264489324763417	
20.1557439491116	0.00524291992187501	18.8999999522821	190	-0.000167846024851315	
20.2557439488592	0.00524291992187501	18.9999999520296	191	5.59429827262647E-05	
20.3557439486067	0.00522766113281251	19.0999999517771	192	-0.000289917545160279	
20.4557439483542	0.005230712890625	19.1999999515247	193	0.000233959042816423	
20.5557439481017	0.00523986816406249	19.2999999512722	194	8.13836013549007E-05	
20.6557439478493	0.0052337646484375	19.3999999510197	195	-0.000208530836971477	
20.7557439475968	0.00524291992187501	19.4999999507672	196	0.000269571261014789	
20.8557439473443	0.00524291992187501	19.5999999505148	197	-0.000127161198179238	
20.9557439470918	0.00524291992187501	19.6999999502623	198	3.05163284792798E-05	
21.0557439468394	0.00525817871093751	19.7999999500098	199	0.000279742846032605	
21.1557439465869	0.0052459716796875	19.8999999497573	200	-0.00040182369411923	
21.2557439463344	0.00524291992187501	19.9999999495049	201	0.000137337454361841	
21.3557439460819	0.00525512695312499	20.0999999492524	202	0.000218697765376419	
21.4557439458295	0.00523986816406249	20.1999999489999	203	-0.000432322936831042	
21.555743945577	0.0052459716796875	20.2999999487474	204	0.000330605456838384	
21.6557439453245	0.0052459716796875	20.399999948495	205	-0.000122076176921837	
21.755743945072	0.00525512695312499	20.4999999482425	206	0.000188190751941875	
21.8557439448196	0.00523986816406249	20.59999994799	207	-0.00038655154639855	
21.9557439445671	0.00526123046875	20.6999999477375	208	0.000600178260356188	
22.0557439443146	0.0052490234375	20.799999947485	209	-0.000523885886650532	
22.1557439440621	0.0052459716796875	20.8999999472326	210	0.000157668211613782	
22.2557439438096	0.00523986816406249	20.9999999469801	211	-0.00011698339949362	
22.3557439435572	0.00525512695312499	21.0999999467276	212	0.000340783270075917	
22.4557439433047	0.00523681640625	21.1999999464751	213	-0.000534048187546432	
22.5557439430522	0.00524291992187501	21.2999999462227	214	0.000376379961380735	
22.6557439427997	0.0052459716796875	21.3999999459702	215	-7.63047937653027E-05	
22.7557439425473	0.0052520751953125	21.4999999457177	216	9.66495281318203E-05	
22.8557439422948	0.00525817871093751	21.5999999454652	217	5.08610646647867E-05	
22.9557439420423	0.0052490234375	21.6999999452128	218	-0.000218714849324897	
23.0557439417898	0.0052490234375	21.7999999449603	219	0.000127159655676223	
23.1557439415374	0.00524291992187501	21.8999999447078	220	-0.000142413162393495	
23.2557439412849	0.00525817871093751	21.9999999444553	221	0.000350947084371001	
23.3557439410324	0.0052490234375	22.0999999442029	222	-0.000366214575478807	
23.4557439407799	0.00525512695312499	22.1999999439504	223	0.000269572803517804	
23.5557439405275	0.00524291992187501	22.2999999436979	224	-0.000325511122355238	
23.655743940275	0.00525817871093751	22.3999999434454	225	0.000442496093455702	
23.7557439400225	0.0052520751953125	22.499999943193	226	-0.000330605456838384	
23.85574393977	0.0052337646484375	22.5999999429405	227	-0.00021362207189668	
23.9557439395176	0.0052459716796875	22.699999942688	228	0.000417069444665685	
24.0557439392651	0.00526123046875	22.7999999424355	229	7.62908239266835E-05	
24.1557439390126	0.0052520751953125	22.8999999421831	230	-0.000305169494822621	
24.2557439387601	0.00525817871093751	22.9999999419306	231	0.000269571261014789	
24.3557439385077	0.0052520751953125	23.0999999416781	232	-0.000213623614399694	
24.4557439382552	0.0052520751953125	23.1999999414256	233	9.15583004825749E-05	
24.5557439380027	0.00525512695312499	23.2999999411732	234	3.55997981387191E-05	
24.6557439377502	0.00523986816406249	23.3999999409207	235	-0.000315342651447281	
24.7557439374978	0.00524291992187501	23.4999999406682	236	0.000244146154727787	
24.8557439372453	0.00525512695312499	23.5999999404157	237	0.00013731571380049	
24.9557439369928	0.00524291992187501	23.6999999401633	238	-0.0003560243640095	
25.0557439367403	0.0052459716796875	23.7999999399108	239	0.000239037850406021	
25.1557439364879	0.00524291992187501	23.8999999396583	240	-0.000132233806652948	
25.2557439362354	0.005267333984375	23.9999999394058	241	0.000493363360874355	
25.3557439359829	0.0052459716796875	24.0999999391533	242	-0.000686648476403207	
25.4557439357304	0.0052520751953125	24.1999999389009	243	0.00044251314830035	
25.5557439354779	0.0052459716796875	24.2999999386484	244	-0.000254322396358475	
25.6557439352255	0.0052520751953125	24.3999999383959	245	0.000203459785552695	
25.755743934973	0.0052459716796875	24.4999999381434	246	-0.000203459785552695	
25.8557439347205	0.0052520751953125	24.599999937891	247	0.000203459785552695	
25.955743934468	0.0052459716796875	24.6999999376385	248	-0.000203459785552695	
26.0557439342156	0.0052520751953125	24.799999937386	249	0.000203459785552695	
26.1557439339631	0.00525817871093751	24.8999999371335	250	2.03431845875457E-05	
26.2557439337106	0.005267333984375	24.9999999368811	251	0.00011698339949362	
26.3557439334581	0.00525512695312499	25.0999999366286	252	-0.000310263829305768	
26.4557439332057	0.0052520751953125	25.1999999363761	253	0.000116997369332239	
26.5557439329532	0.00525817871093751	25.2999999361236	254	0.000106807150586974	
26.6557439327007	0.0052490234375	25.3999999358712	255	-0.000249232718488202	
26.7557439324482	0.00525817871093751	25.4999999356187	256	0.000295008765533566	
26.8557439321958	0.00525817871093751	25.5999999353662	257	-0.000137334340251982	
26.9557439319433	0.00525817871093751	25.6999999351137	258	3.05163284792798E-05	
27.0557439316908	0.0052459716796875	25.7999999348613	259	-0.000223804527195171	
27.1557439314383	0.0052490234375	25.8999999346088	260	0.000198370107682422	
27.2557439311859	0.005267333984375	25.9999999343563	261	0.000259402761003003	
27.3557439309334	0.0052520751953125	26.0999999341038	262	-0.00048319177585654	
27.4557439306809	0.0052490234375	26.1999999338514	263	0.00018310418818146	
27.5557439304284	0.00525512695312499	26.2999999335989	264	9.66371153481305E-05	
27.655743930176	0.00526123046875	26.3999999333464	265	3.05194334941916E-05	
27.7557439299235	0.00525817871093751	26.4999999330939	266	-0.000106810257420875	
27.855743929671	0.0052520751953125	26.5999999328415	267	-5.59522959520109E-05	
27.9557439294185	0.00525817871093751	26.699999932589	268	0.000172937245224603	
28.0557439291661	0.0052642822265625	26.7999999323365	269	2.03385279746726E-05	
28.1557439289136	0.0052490234375	26.899999932084	270	-0.00033060391433537	
28.2557439286611	0.00525817871093751	26.9999999318316	271	0.000366213032975793	
28.3557439284086	0.00525512695312499	27.0999999315791	272	-0.00021363292762544	
28.4557439281562	0.00527038574218749	27.1999999313266	273	0.000345874490449205	
28.5557439279037	0.00524291992187501	27.2999999310741	274	-0.000691725697834045	
28.6557439276512	0.00525512695312499	27.3999999308217	275	0.000595079269260168	
28.7557439273987	0.00527038574218749	27.4999999305692	276	4.57853602711111E-05	
28.8557439271463	0.0052459716796875	27.5999999303167	277	-0.000584921683184803	
28.9557439268938	0.005267333984375	27.6999999300642	278	0.000727339473087341	
29.0557439266413	0.00526123046875	27.7999999298117	279	-0.00044251314830035	
29.1557439263888	0.0052490234375	27.8999999295593	280	-8.1375845184084E-05	
29.2557439261363	0.00524291992187501	27.9999999293068	281	1.01731448012288E-05	
29.3557439258839	0.00525817871093751	28.0999999290543	282	0.000310257630189881	
29.4557439256314	0.00526123046875	28.1999999288018	283	-0.000142424018122256	
29.5557439253789	0.00525512695312499	28.2999999285494	284	-9.6635558293201E-05	
29.6557439251264	0.00525512695312499	28.3999999282969	285	8.13836013549007E-05	
29.755743924874	0.00525817871093751	28.4999999280444	286	3.5610661143437E-05	
29.8557439246215	0.0052642822265625	28.5999999277919	287	7.62830604799092E-05	
29.955743924369	0.0052642822265625	28.6999999275395	288	-6.10311071795877E-05	
30.0557439241165	0.00525817871093751	28.799999927287	289	-9.15505370358005E-05	
30.1557439238641	0.00525512695312499	28.8999999270345	290	1.52488510138937E-05	
30.2557439236116	0.0052642822265625	28.999999926782	291	0.00018311660096515	
30.3557439233591	0.00525817871093751	29.0999999265296	292	-0.000228883334784769	
30.4557439231066	0.00526123046875	29.1999999262771	293	0.000157662012497894	
30.5557439228542	0.0052642822265625	29.2999999260246	294	6.20881568380582E-09	
30.6557439226017	0.0052642822265625	29.3999999257721	295	-2.54328606388299E-05	
30.7557439223492	0.005267333984375	29.4999999255197	296	6.61269878037274E-05	
30.8557439220967	0.00525817871093751	29.5999999252672	297	-0.000203450472326949	
30.9557439218443	0.0052642822265625	29.6999999250147	298	0.000228875578613952	
31.0557439215918	0.0052642822265625	29.7999999247622	299	-0.000101722129329573	
31.1557439213393	0.00526123046875	29.8999999245098	300	-3.56091113644652E-05	
31.2557439210868	0.00527343750000001	29.9999999242573	301	0.000259404332609847	
31.3557439208344	0.00525817871093751	30.0999999240048	302	-0.000432338449172676	
31.4557439205819	0.00527343750000001	30.1999999237523	303	0.000498453038744628	
31.5557439203294	0.0052642822265625	30.2999999234999	304	-0.000396732444642112	
31.6557439200769	0.0052642822265625	30.3999999232474	305	0.000157677524839528	
31.7557439198245	0.00526123046875	30.4999999229949	306	-8.64717294462025E-05	
31.855743919572	0.005267333984375	30.5999999227424	307	0.000147509039379656	
31.9557439193195	0.00525512695312499	30.69999992249	308	-0.000305181922158226	
32.055743919067	0.005267333984375	30.7999999222375	309	0.000386570172850043	
32.1557439188146	0.005267333984375	30.899999921985	310	-0.000183107287739404	
32.2557439185621	0.00526123046875	30.9999999217325	311	-7.12135661160573E-05	
32.3557439183096	0.00527343750000001	31.09999992148	312	0.000295008765533566	
32.4557439180571	0.00525817871093751	31.1999999212276	313	-0.000442511605797336	
32.5557439178046	0.00527038574218749	31.2999999209751	314	0.00044249917846173	
32.6557439175522	0.00527343750000001	31.3999999207226	315	-0.00013731571380049	
32.7557439172997	0.0052642822265625	31.4999999204701	316	-0.000162771859322675	
32.8557439170472	0.0052825927734375	31.5999999202177	317	0.00045268630492501	
32.9557439167947	0.005267333984375	31.6999999199652	318	-0.000523882801644504	
33.0557439165423	0.005267333984375	31.7999999197127	319	0.000239058033912443	
33.1557439162898	0.00527038574218749	31.8999999194602	320	5.08191578774131E-06	
33.2557439160373	0.0052642822265625	31.9999999192078	321	-0.000147493527038023	
33.3557439157848	0.005267333984375	32.0999999189553	322	0.000137329683639109	
33.4557439155324	0.005267333984375	32.1999999187028	323	-5.59460859221872E-05	
33.5557439152799	0.00527038574218749	32.2999999184503	324	6.61176818539388E-05	
33.6557439150274	0.0052764892578125	32.3999999181979	325	7.62970303185284E-05	
33.7557439147749	0.0052764892578125	32.4999999179454	326	-6.10419738222845E-05	
33.8557439145225	0.0052764892578125	32.5999999176929	327	2.03416329895845E-05	
33.95574391427	0.0052642822265625	32.6999999174404	328	-0.000223793656914495	
34.0557439140175	0.00527343750000001	32.799999917188	329	0.000310263829305768	
34.155743913765	0.005279541015625	32.8999999169355	330	-3.5610661143437E-05	
34.2557439135126	0.00527038574218749	32.999999916683	331	-0.00020853549358435	
34.3557439132601	0.00527343750000001	33.0999999164305	332	0.00018311504391022	
34.4557439130076	0.0052642822265625	33.1999999161781	333	-0.000233979211770929	
34.5557439127551	0.00528564453124999	33.2999999159256	334	0.000508627737872303	
34.6557439125027	0.0052764892578125	33.3999999156731	335	-0.000447588856332004	
34.7557439122502	0.0052825927734375	33.4999999154206	336	0.000289920659270138	
34.8557439119977	0.00527343750000001	33.5999999151682	337	-0.000269572803517804	
34.9557439117452	0.00527038574218749	33.6999999149157	338	7.11995962774381E-05	
35.0557439114928	0.0052764892578125	33.7999999146632	339	0.000116989605885465	
35.1557439112403	0.00527343750000001	33.8999999144107	340	-0.000137328141136095	
35.2557439109878	0.005279541015625	33.9999999141583	341	0.000167838254128583	
35.3557439107353	0.00527343750000001	34.0999999139058	342	-0.000193271116586402	
35.4557439104829	0.00528564453124999	34.1999999136533	343	0.000315337994834408	
35.5557439102304	0.0052825927734375	34.2999999134008	344	-0.000218693108763546	
35.6557439099779	0.0052825927734375	34.3999999131483	345	7.62923737056553E-05	
35.7557439097254	0.0052764892578125	34.4999999128959	346	-0.000122076176921837	
35.8557439094729	0.0052764892578125	34.5999999126434	347	7.1205802669283E-05	
35.9557439092205	0.00528869628906251	34.6999999123909	348	0.000203453571884893	
36.055743908968	0.00527038574218749	34.7999999121384	349	-0.000478119152830914	
36.1557439087155	0.0052764892578125	34.899999911886	350	0.000366217689588666	
36.255743908463	0.00527038574218749	34.9999999116335	351	-0.000244144612224773	
36.3557439082106	0.00528564453124999	35.099999911381	352	0.000371301139239222	
36.4557439079581	0.0052764892578125	35.1999999111285	353	-0.000366211461368948	
36.5557439077056	0.0052825927734375	35.2999999108761	354	0.000269575917627662	
36.6557439074531	0.0052825927734375	35.3999999106236	355	-0.000101723686384503	
36.7557439072007	0.00528564453124999	35.4999999103711	356	7.62908239266835E-05	
36.8557439069482	0.00528869628906251	35.5999999101186	357	2.03556028282037E-05	
36.9557439066957	0.00527343750000001	35.6999999098662	358	-0.000305185007164255	
37.0557439064432	0.00527343750000001	35.7999999096137	359	0.000188190751941875	
37.1557439061908	0.0052825927734375	35.8999999093612	360	0.000116984949272592	
37.2557439059383	0.005291748046875	35.9999999091087	361	6.10311071795877E-05	
37.3557439056858	0.00528869628906251	36.0999999088563	362	-0.000132236906210892	
37.4557439054333	0.00527038574218749	36.1999999086038	363	-0.000269583659246564	
37.5557439051809	0.0052764892578125	36.2999999083513	364	0.000315355049679056	
37.6557439049284	0.005267333984375	36.3999999080988	365	-0.000300086045172066	
37.7557439046759	0.005279541015625	36.4999999078464	366	0.000350948655977845	
37.8557439044234	0.00527343750000001	36.5999999075939	367	-0.000284826324786991	
37.955743904171	0.0052825927734375	36.6999999073414	368	0.00027974130352959	
38.0557439039185	0.005279541015625	36.7999999070889	369	-0.00018310418818146	
38.155743903666	0.00528869628906251	36.8999999068365	370	0.000233971455600113	
38.2557439034135	0.0052764892578125	36.999999906584	371	-0.000340792583301663	
38.3557439031611	0.00528564453124999	37.0999999063315	372	0.000340783270075917	
38.4557439029086	0.005279541015625	37.199999906079	373	-0.000259393447777256	
38.5557439026561	0.0052764892578125	37.2999999058266	374	4.57682835985906E-05	
38.6557439024036	0.005279541015625	37.3999999055741	375	7.12104592821561E-05	
38.7557439021512	0.0052825927734375	37.4999999053216	376	1.01762489066459E-05	
38.8557439018987	0.00527343750000001	37.5999999050691	377	-0.000193277330254205	
38.9557439016462	0.00528564453124999	37.6999999048167	378	0.000340770842740312	
39.0557439013937	0.005291748046875	37.7999999045642	379	-6.10295537626371E-05	
39.1557439011413	0.00528564453124999	37.8999999043117	380	-0.000142419361509383	
39.2557439008888	0.005279541015625	37.9999999040592	381	-2.03385279746726E-05	
39.3557439006363	0.00528564453124999	38.0999999038067	382	0.000162754789926112	
39.4557439003838	0.0052825927734375	38.1999999035543	383	-0.00014748887042515	
39.5557439001313	0.0052947998046875	38.2999999033018	384	0.000279738189419732	
39.6557438998789	0.0052825927734375	38.3999999030493	385	-0.000376376847270876	
39.7557438996264	0.00528564453124999	38.4999999027968	386	0.000239048720686696	
39.8557438993739	0.0052947998046875	38.5999999025444	387	9.15614073164761E-05	
39.9557438991214	0.00528869628906251	38.6999999022919	388	-0.000208538593142293	
40.055743898869	0.00528869628906251	38.7999999020394	389	0.000101720579550602	
40.1557438986165	0.0052825927734375	38.8999999017869	390	-0.000132241562823765	
40.255743898364	0.00530090332031249	38.9999999015345	391	0.000406899402150884	
40.3557438981115	0.00528869628906251	39.099999901282	392	-0.000457752699730918	
40.4557438978591	0.005291748046875	39.1999999010295	393	0.000259382592048496	
40.5557438976066	0.0052947998046875	39.299999900777	394	-2.03385279746726E-05	
40.6557438973541	0.0052978515625	39.3999999005246	395	3.05209869111422E-05	
40.7557438971016	0.0052978515625	39.4999999002721	396	-2.54282040259568E-05	
40.8557438968492	0.00528564453124999	39.5999999000196	397	-0.000213626713957638	
40.9557438965967	0.00528564453124999	39.6999998997671	398	0.000142420918564312	
41.0557438963442	0.0052947998046875	39.7999998995147	399	0.000127159655676223	
41.1557438960917	0.00530090332031249	39.8999998992622	400	5.08036328028538E-06	
41.2557438958393	0.0052947998046875	39.9999998990097	401	-0.000152580090798438	
41.3557438955868	0.00528869628906251	40.0999998987572	402	-2.03462896024575E-05	
41.4557438953343	0.0052825927734375	40.1999998985048	403	-6.10373172094114E-05	
41.5557438950818	0.0052825927734375	40.2999998982523	404	5.0868828111561E-05	
41.6557438948294	0.0052978515625	40.3999998979998	405	0.000259402761003003	
41.7557438945769	0.0052978515625	40.4999998977473	406	-0.000178016052814201	
41.8557438943244	0.0052978515625	40.5999998974949	407	5.08657212776598E-05	
41.9557438940719	0.005291748046875	40.6999998972424	408	-0.000111904591904022	
42.0557438938195	0.0052978515625	40.7999998969899	409	0.000183113501407206	
42.155743893567	0.0052978515625	40.8999998967374	410	-9.155209409073E-05	
42.2557438933145	0.0052978515625	40.999999896485	411	2.034939279838E-05	
42.355743893062	0.00530395507812501	41.0999998962325	412	0.000111898378236219	
42.4557438928096	0.0053070068359375	41.19999989598	413	-1.52705815708032E-05	
42.5557438925571	0.00530090332031249	41.2999998957275	414	-0.000127153442008421	
42.6557438923046	0.0052978515625	41.399999895475	415	2.5442173864576E-05	
42.7557438920521	0.00528869628906251	41.4999998952226	416	-0.000152590961079113	
42.8557438917996	0.0052978515625	41.5999998949701	417	0.000264484697254375	
42.9557438915472	0.00530090332031249	41.6999998947176	418	-8.13820515759289E-05	
43.0557438912947	0.00528869628906251	41.7999998944651	419	-0.000228870922001079	
43.1557438910422	0.00528869628906251	41.8999998942127	420	0.000152578548295423	
43.2557438907897	0.00528869628906251	41.9999998939602	421	-4.06910257879645E-05	
43.3557438905373	0.00530090332031249	42.0999998937077	422	0.000223789000301622	
43.4557438902848	0.0052947998046875	42.1999998934552	423	-0.000254302227403969	
43.5557438900323	0.0053070068359375	42.2999998932028	424	0.000335684278979898	
43.6557438897798	0.005291748046875	42.3999998929503	425	-0.000442506949184462	
43.7557438895274	0.0052978515625	42.4999998926978	426	0.000330613227561116	
43.8557438892749	0.00531005859375	42.5999998924453	427	0.000101722129329573	
43.9557438890224	0.00530090332031249	42.6999998921929	428	-0.000289917545160279	
44.0557438887699	0.0052978515625	42.7999998919404	429	9.15645068744197E-05	
44.1557438885175	0.0052978515625	42.8999998916879	430	5.08501989315846E-06	
44.255743888265	0.00530090332031249	42.9999998914354	431	4.57729402114637E-05	
44.3557438880125	0.0052978515625	43.099999891183	432	-9.15396740310825E-05	
44.45574388776	0.00528869628906251	43.1999998909305	433	-0.000122074634418823	
44.5557438875076	0.00530090332031249	43.299999890678	434	0.000320426101097837	
44.6557438872551	0.0052978515625	43.3999998904255	435	-0.000228866265388206	
44.7557438870026	0.0053070068359375	43.4999998901731	436	0.000244129085331224	
44.8557438867501	0.00530395507812501	43.5999998899206	437	-0.000172926389495842	
44.9557438864977	0.0052947998046875	43.6999998896681	438	-0.000101734549389221	
45.0557438862452	0.005291748046875	43.7999998894156	439	4.06894723710138E-05	
45.1557438859927	0.00530395507812501	43.8999998891632	440	0.000228886434342712	
45.2557438857402	0.0053070068359375	43.9999998889107	441	-9.66526349657215E-05	
45.3557438854878	0.00530395507812501	44.0999998886582	442	-5.08533048559912E-05	
45.4557438852353	0.0052978515625	44.1999998884057	443	-6.61254380247556E-05	
45.5557438849828	0.00530395507812501	44.2999998881533	444	0.000172937245224603	
45.6557438847303	0.00530395507812501	44.3999998879008	445	-9.1556750703603E-05	
45.7557438844779	0.00530090332031249	44.4999998876483	446	-3.5610661143437E-05	
45.8557438842254	0.00530090332031249	44.5999998873958	447	3.56122145603877E-05	
45.9557438839729	0.00531921386718751	44.6999998871433	448	0.000325526663800702	
46.0557438837204	0.00530395507812501	44.7999998868909	449	-0.000493375759106129	
46.1557438834679	0.00530395507812501	44.8999998866384	450	0.00023905337729957	
46.2557438832155	0.00530395507812501	44.9999998863859	451	-5.08641714986879E-05	
46.355743882963	0.00531616210937499	45.0999998861334	452	0.000223789000301622	
46.4557438827105	0.00530395507812501	45.199999885881	453	-0.000366197491530329	
46.555743882458	0.0053070068359375	45.2999998856285	454	0.000239037850406021	
46.6557438822056	0.00531616210937499	45.399999885376	455	9.1556750703603E-05	
46.7557438819531	0.00530395507812501	45.4999998851235	456	-0.000320426101097837	
46.8557438817006	0.00531005859375	45.5999998848711	457	0.000284820096567273	
46.9557438814481	0.00530395507812501	45.6999998846186	458	-0.000223789000301622	
47.0557438811957	0.00530090332031249	45.7999998843661	459	3.55935881088953E-05	
47.1557438809432	0.00531921386718751	45.8999998841136	460	0.000350965710822493	
47.2557438806907	0.0053070068359375	45.9999998838612	461	-0.000447607482783496	
47.3557438804382	0.00531921386718751	46.0999998836087	462	0.00042725499952212	
47.4557438801858	0.0053253173828125	46.1999998833562	463	-7.1216665674001E-05	
47.5557438799333	0.00531921386718751	46.2999998831037	464	-0.000142408505780622	
47.6557438796808	0.0052978515625	46.3999998828513	465	-0.000300092244287953	
47.7557438794283	0.0053131103515625	46.4999998825988	466	0.000508632394485176	
47.8557438791759	0.00531005859375	46.5999998823463	467	-0.000305177265545353	
47.9557438789234	0.00530090332031249	46.6999998820938	468	-8.13820515759289E-05	
48.0557438786709	0.00531616210937499	46.7999998818414	469	0.000376387732103467	
48.1557438784184	0.00530395507812501	46.8999998815889	470	-0.000432326050940901	
48.255743878166	0.0053131103515625	46.9999998813364	471	0.000361118698492646	
48.3557438779135	0.00530090332031249	47.0999998810839	472	-0.000371298054233193	
48.455743877661	0.00530395507812501	47.1999998808315	473	0.000228892648010515	
48.5557438774085	0.00531005859375	47.299999880579	474	3.55920346919447E-05	
48.6557438771561	0.00531921386718751	47.3999998803265	475	0.000106818013591692	
48.7557438769036	0.00530090332031249	47.499999880074	476	-0.000422169978264719	
48.8557438766511	0.00531005859375	47.5999998798216	477	0.000411998393246904	
48.9557438763986	0.00530395507812501	47.6999998795691	478	-0.000279745960142463	
49.0557438761462	0.0053131103515625	47.7999998793166	479	0.000269569689407945	
49.1557438758937	0.00531616210937499	47.8999998790641	480	-7.12089095031843E-05	
49.2557438756412	0.0053131103515625	47.9999998788117	481	-6.10217939538416E-05	
49.3557438753887	0.00531005859375	48.0999998785592	482	-1.01793530120631E-05	
49.4557438751363	0.0053070068359375	48.1999998783067	483	-3.05209869111422E-05	
49.5557438748838	0.0053070068359375	48.2999998780542	484	2.54282040259568E-05	
49.6557438746313	0.0053253173828125	48.3999998778017	485	0.000325522007187828	
49.7557438743788	0.00530090332031249	48.4999998775493	486	-0.000661217141896486	
49.8557438741263	0.0053131103515625	48.5999998772968	487	0.000569674361031502	
49.9557438738739	0.005322265625	48.6999998770443	488	-5.59600557608064E-05	
50.0557438736214	0.00531616210937499	48.7999998767918	489	-0.00017801760986913	
50.1557438733689	0.00531616210937499	48.8999998765394	490	0.000101728342997376	
50.2557438731164	0.00531005859375	48.9999998762869	491	-0.000132238463265821	
50.355743872864	0.0053131103515625	49.0999998760344	492	0.000127158098621294	
50.4557438726115	0.0053253173828125	49.1999998757819	493	0.000167844467796385	
50.555743872359	0.005328369140625	49.2999998755295	494	-7.62877170927823E-05	
50.6557438721065	0.005322265625	49.399999875277	495	-0.000106819570646621	
50.7557438718541	0.0053253173828125	49.4999998750245	496	0.000137332797748968	
50.8557438716016	0.005328369140625	49.599999874772	497	3.10440784190291E-09	
50.9557438713491	0.00531005859375	49.6999998745196	498	-0.000361126440111548	
51.0557438710966	0.0053131103515625	49.7999998742671	499	0.000279750616755337	
51.1557438708442	0.00533142089843749	49.8999998740146	500	0.000239048720686696	
51.2557438705917	0.00531005859375	49.9999998737621	501	-0.000595083925873041	
51.3557438703392	0.0053131103515625	50.0999998735097	502	0.000366211461368948	
51.4557438700867	0.005328369140625	50.1999998732572	503	0.000172935688169673	
51.5557438698343	0.00531005859375	50.2999998730047	504	-0.000503541145008057	
51.6557438695818	0.00531616210937499	50.3999998727522	505	0.000376381503883749	
51.7557438693293	0.00531921386718751	50.4999998724998	506	-7.62846175348386E-05	
51.8557438690768	0.00531616210937499	50.5999998722473	507	-7.12213222868741E-05	
51.9557438688244	0.0053131103515625	50.6999998719948	508	-1.01560699476977E-05	
52.0557438685719	0.00531921386718751	50.7999998717423	509	0.000137325027026236	
52.1557438683194	0.005322265625	50.8999998714899	510	-2.5442173864576E-05	
52.2557438680669	0.005322265625	50.9999998712374	511	-1.52581642396399E-05	
52.3557438678145	0.005322265625	51.0999998709849	512	1.01684881883557E-05	
52.455743867562	0.005328369140625	51.1999998707324	513	0.000111904591904022	
52.5557438673095	0.00531616210937499	51.29999987048	514	-0.000295008765533566	
52.655743867057	0.00533142089843749	51.3999998702275	515	0.000442511605797336	
52.7557438668046	0.0053131103515625	51.499999869975	516	-0.000554394442588091	
52.8557438665521	0.00533142089843749	51.5999998697225	517	0.000600170518737286	
52.9557438662996	0.00531921386718751	51.69999986947	518	-0.000498442153912038	
53.0557438660471	0.0053253173828125	51.7999998692176	519	0.000315336423227564	
53.1557438657946	0.0053436279296875	51.8999998689651	520	0.000223804527195171	
53.2557438655422	0.0053375244140625	51.9999998687126	521	-0.000305183464661241	
53.3557438652897	0.00531921386718751	52.0999998684601	522	-0.000203444258659147	
53.4557438650372	0.00533142089843749	52.1999998682077	523	0.000417061673942953	
53.5557438647847	0.00533142089843749	52.2999998679552	524	-0.000203441159101203	
53.6557438645323	0.0053131103515625	52.3999998677027	525	-0.000294994795694947	
53.7557438642798	0.0053375244140625	52.4999998674502	526	0.000661203172057867	
53.8557438640273	0.0053253173828125	52.5999998671978	527	-0.000569657306186855	
53.9557438637748	0.005328369140625	52.6999998669453	528	0.000279747502645478	
54.0557438635224	0.0053436279296875	52.7999998666928	529	0.000203453571884893	
54.1557438632699	0.00533447265625001	52.8999998664403	530	-0.000335692049702629	
54.2557438630174	0.00533447265625001	52.9999998661879	531	0.000157669768668711	
54.3557438627649	0.005340576171875	53.0999998659354	532	8.1375845184084E-05	
54.4557438625125	0.005328369140625	53.1999998656829	533	-0.000294994795694947	
54.55574386226	0.00531921386718751	53.2999998654304	534	-5.08657240061439E-06	
54.6557438620075	0.005328369140625	53.399999865178	535	0.00023396679898724	
54.755743861755	0.005340576171875	53.4999998649255	536	8.64670728333294E-05	
54.8557438615026	0.0053253173828125	53.599999864673	537	-0.000391641224268824	
54.9557438612501	0.0053436279296875	53.6999998644205	538	0.000554406899027526	
55.0557438609976	0.00533447265625001	53.7999998641681	539	-0.000432332250056788	
55.1557438607451	0.0053375244140625	53.8999998639156	540	0.000223784343688749	
55.2557438604927	0.00533447265625001	53.9999998636631	541	-0.000122062214359175	
55.3557438602402	0.005322265625	54.0999998634106	542	-0.000178033136762679	
55.4557438599877	0.0053253173828125	54.1999998631582	543	0.000188198522664607	
55.5557438597352	0.0053375244140625	54.2999998629057	544	0.000147495069541037	
55.6557438594828	0.00533142089843749	54.3999998626532	545	-0.000244139941059984	
55.7557438592303	0.0053253173828125	54.4999998624007	546	6.20881568380582E-09	
55.8557438589778	0.005322265625	54.5999998621483	547	-5.09433311890461E-06	
55.9557438587253	0.00533447265625001	54.6999998618958	548	0.000239059576415457	
56.0557438584729	0.00533142089843749	54.7999998616433	549	-0.00020854790636804	
56.1557438582204	0.005340576171875	54.8999998613908	550	0.000244152353843674	
56.2557438579679	0.00531616210937499	54.9999998611383	551	-0.0005645815981552	
56.3557438577154	0.0053253173828125	55.0999998608859	552	0.0004832026315853	
56.4557438574629	0.005340576171875	55.1999998606334	553	9.15489872568287E-05	
56.5557438572105	0.0053375244140625	55.2999998603809	554	-0.000203455128939822	
56.655743856958	0.00534973144531251	55.3999998601284	555	0.000310266943415627	
56.7557438567055	0.00533142089843749	55.499999859876	556	-0.000488292309455574	
56.855743856453	0.00533447265625001	55.5999998596235	557	0.000310276256641373	
56.9557438562006	0.005352783203125	55.699999859371	558	0.000239037850406021	
57.0557438559481	0.00533142089843749	55.7999998591185	559	-0.000595088582485914	
57.1557438556956	0.00534973144531251	55.8999998588661	560	0.000645963649731129	
57.2557438554431	0.005328369140625	55.9999998586136	561	-0.000676478433888406	
57.3557438551907	0.0053375244140625	56.0999998583611	562	0.000478105182992294	
57.4557438549382	0.00534667968749999	56.1999998581086	563	-1.01715922937728E-05	
57.5557438546857	0.0053436279296875	56.2999998578562	564	-0.000132232249598019	
57.6557438544332	0.0053375244140625	56.3999998576037	565	-4.5786910050083E-05	
57.7557438541808	0.005340576171875	56.4999998573512	566	0.000116988056106493	
57.8557438539283	0.0053436279296875	56.5999998570987	567	3.10440784190291E-09	
57.9557438536758	0.0053375244140625	56.6999998568463	568	-0.000137335897306912	
58.0557438534233	0.00534667968749999	56.7999998565938	569	0.000249228061875328	
58.1557438531709	0.00534973144531251	56.8999998563413	570	-7.11995962774381E-05	
58.2557438529184	0.0053436279296875	56.9999998560888	571	-0.000116989605885465	
58.3557438526659	0.00533447265625001	57.0999998558364	572	-8.64624162204564E-05	
58.4557438524134	0.0053436279296875	57.1999998555839	573	0.000254311540629715	
58.555743852161	0.00534667968749999	57.2999998553314	574	-8.13820515759289E-05	
58.6557438519085	0.00533447265625001	57.3999998550789	575	-0.000228870922001079	
58.755743851656	0.0053558349609375	57.4999998548265	576	0.000544218230061233	
58.8557438514035	0.00534667968749999	57.599999854574	577	-0.000457762012956664	
58.9557438511511	0.00533142089843749	57.6999998543215	578	-0.000101720579550602	
59.0557438508986	0.0053558349609375	57.799999854069	579	0.000595096382312477	
59.1557438506461	0.00534667968749999	57.8999998538166	580	-0.00050354580162093	
59.2557438503936	0.0053436279296875	57.9999998535641	581	0.000132255532662384	
59.3557438501412	0.0053436279296875	58.0999998533116	582	5.08501989315846E-06	
59.4557438498887	0.005352783203125	58.1999998530591	583	0.000157668211613782	
59.5557438496362	0.0053436279296875	58.2999998528067	584	-0.000274650054052472	
59.6557438493837	0.005340576171875	58.3999998525542	585	8.1375845184084E-05	
59.7557438491313	0.00534667968749999	58.4999998523017	586	0.00011698339949362	
59.8557438488788	0.0053436279296875	58.5999998520492	587	-0.000137317270855419	
59.9557438486263	0.005340576171875	58.6999998517967	588	-6.20881568380582E-09	
60.0557438483738	0.005340576171875	58.7999998515443	589	2.54328606388299E-05	
60.1557438481213	0.00536499023437501	58.8999998512918	590	0.000437420385424048	
60.2557438478689	0.00534667968749999	58.9999998510393	591	-0.000620533886831254	
60.3557438476164	0.00534973144531251	59.0999998507868	592	0.000350965710822493	
60.4557438473639	0.005340576171875	59.1999998505344	593	-0.000264497095486149	
60.5557438471114	0.00534973144531251	59.2999998502819	594	0.000284837180515751	
60.655743846859	0.0053436279296875	59.3999998500294	595	-0.000249229633482173	
60.7557438466065	0.005340576171875	59.4999998497769	596	4.57775968243368E-05	
60.855743846354	0.00534667968749999	59.5999998495245	597	0.00012715499906335	
60.9557438461015	0.00534667968749999	59.699999849272	598	-8.1375845184084E-05	
61.0557438458491	0.00534667968749999	59.7999998490195	599	2.03462896024575E-05	
61.1557438455966	0.0053558349609375	59.899999848767	600	0.000167850681464188	
