Time (s)	WE(1).Potential (V)	Corrected time (s)	Index	dWE(1).Potential/dt (V/s)	Cutoffs	OCP value (V)
1.50574599619836	-0.057647705078125	0	1	0	dWE(1).Potential/dt < 1E-06 V/s	-0.0580911075367647
1.60574599594588	-0.057708740234375	0.0999999997475243	2	-0.000610351446084678	dWE(1).Potential/dt < 1E-06 V/s	
1.70574599569341	-0.05767822265625	0.199999999495049	3	0.000762939278502017		
1.80574599544093	-0.057708740234375	0.299999999242573	4	-0.00111897755414248	dWE(1).Potential/dt < 1E-06 V/s	
1.90574599518845	-0.05767822265625	0.399999998990097	5	0.00101725233253092		
2.00574599493598	-0.057708740234375	0.499999998737621	6	-0.00101725233253092	dWE(1).Potential/dt < 1E-06 V/s	
2.1057459946835	-0.057708740234375	0.599999998485146	7	0.000457763555459678		
2.20574599443103	-0.05767822265625	0.69999999823267	8	0.000457763555459678		
2.30574599417855	-0.057708740234375	0.799999997980194	9	-0.000915527110919356	dWE(1).Potential/dt < 1E-06 V/s	
2.40574599392608	-0.057708740234375	0.899999997727718	10	0.000457763555459678		
2.5057459936736	-0.057708740234375	0.999999997475243	11	-0.000101725236163475	dWE(1).Potential/dt < 1E-06 V/s	
2.60574599342112	-0.05767822265625	1.09999999722277	12	0.000559488777071238		
2.70574599316865	-0.0577392578125	1.19999999697029	13	-0.00147501588799059	dWE(1).Potential/dt < 1E-06 V/s	
2.80574599291617	-0.057708740234375	1.29999999671782	14	0.00137329066637903		
2.9057459926637	-0.057708740234375	1.39999999646534	15	-0.000559488777071238	dWE(1).Potential/dt < 1E-06 V/s	
3.00574599241122	-0.0577392578125	1.49999999621286	16	-0.000457763555459678	dWE(1).Potential/dt < 1E-06 V/s	
3.10574599215875	-0.057708740234375	1.59999999596039	17	0.000915527110919356		
3.20574599190627	-0.057708740234375	1.69999999570791	18	-0.000457763555459678	dWE(1).Potential/dt < 1E-06 V/s	
3.30574599165379	-0.057708740234375	1.79999999545544	19	0.000101725236163475		
3.40574599140132	-0.057769775390625	1.89999999520296	20	-0.00111897755414248	dWE(1).Potential/dt < 1E-06 V/s	
3.50574599114884	-0.0577392578125	1.99999999495049	21	0.00127156544476748		
3.60574599089637	-0.0577392578125	2.09999999469801	22	-0.000559488777071238	dWE(1).Potential/dt < 1E-06 V/s	
3.70574599064389	-0.057708740234375	2.19999999444553	23	0.000661214056890458		
3.80574599039142	-0.057708740234375	2.29999999419306	24	-0.000356038333848119	dWE(1).Potential/dt < 1E-06 V/s	
3.90574599013894	-0.0577392578125	2.39999999394058	25	-0.000457763555459678	dWE(1).Potential/dt < 1E-06 V/s	
4.00574598988646	-0.057769775390625	2.49999999368811	26	-0.000203450472326949	dWE(1).Potential/dt < 1E-06 V/s	
4.10574598963399	-0.0577392578125	2.59999999343563	27	0.000813801889307797		
4.20574598938151	-0.0577392578125	2.69999999318316	28	-0.000457763555459678	dWE(1).Potential/dt < 1E-06 V/s	
4.30574598912904	-0.057708740234375	2.79999999293068	29	0.000661214056890458		
4.40574598887656	-0.0577392578125	2.8999999926782	30	-0.000915527110919356	dWE(1).Potential/dt < 1E-06 V/s	
4.50574598862408	-0.0577392578125	2.99999999242573	31	0.000457763555459678		
4.60574598837161	-0.057769775390625	3.09999999217325	32	-0.000661214056890458	dWE(1).Potential/dt < 1E-06 V/s	
4.70574598811913	-0.057769775390625	3.19999999192078	33	0.000356038333848119		
4.80574598786666	-0.0577392578125	3.2999999916683	34	0.000457763555459678		
4.90574598761418	-0.0577392578125	3.39999999141583	35	-0.000356038333848119	dWE(1).Potential/dt < 1E-06 V/s	
5.00574598736171	-0.0577392578125	3.49999999116335	36	0.000101725236163475		
5.10574598710923	-0.0577392578125	3.59999999091087	37	0	dWE(1).Potential/dt < 1E-06 V/s	
5.20574598685675	-0.057769775390625	3.6999999906584	38	-0.000559488777071238	dWE(1).Potential/dt < 1E-06 V/s	
5.30574598660428	-0.0577392578125	3.79999999040592	39	0.000915527110919356		
5.4057459863518	-0.057769775390625	3.89999999015345	40	-0.00101725233253092	dWE(1).Potential/dt < 1E-06 V/s	
5.50574598609933	-0.057769775390625	3.99999998990097	41	0.000457763555459678		
5.60574598584685	-0.05780029296875	4.0999999896485	42	-0.000661214056890458	dWE(1).Potential/dt < 1E-06 V/s	
5.70574598559438	-0.05780029296875	4.19999998939602	43	0.000356038333848119		
5.8057459853419	-0.057769775390625	4.29999998914354	44	0.000457763555459678		
5.90574598508942	-0.057769775390625	4.39999998889107	45	-0.000356038333848119	dWE(1).Potential/dt < 1E-06 V/s	
6.00574598483695	-0.057769775390625	4.49999998863859	46	0.000101725236163475		
6.10574598458447	-0.05780029296875	4.59999998838612	47	-0.000559488777071238	dWE(1).Potential/dt < 1E-06 V/s	
6.205745984332	-0.05780029296875	4.69999998813364	48	0.000356038333848119		
6.30574598407952	-0.057769775390625	4.79999998788117	49	0.000457763555459678		
6.40574598382705	-0.05780029296875	4.89999998762869	50	-0.000915527110919356	dWE(1).Potential/dt < 1E-06 V/s	
6.50574598357457	-0.057769775390625	4.99999998737621	51	0.00101725233253092		
6.60574598332209	-0.05780029296875	5.09999998712374	52	-0.00101725233253092	dWE(1).Potential/dt < 1E-06 V/s	
6.70574598306962	-0.05780029296875	5.19999998687126	53	0.000457763555459678		
6.80574598281714	-0.05780029296875	5.29999998661879	54	-0.000101725236163475	dWE(1).Potential/dt < 1E-06 V/s	
6.90574598256467	-0.05780029296875	5.39999998636631	55	0	dWE(1).Potential/dt < 1E-06 V/s	
7.00574598231219	-0.05780029296875	5.49999998611383	56	0	dWE(1).Potential/dt < 1E-06 V/s	
7.10574598205972	-0.057769775390625	5.59999998586136	57	0.000559488777071238		
7.20574598180724	-0.057769775390625	5.69999998560888	58	-0.000356038333848119	dWE(1).Potential/dt < 1E-06 V/s	
7.30574598155476	-0.05780029296875	5.79999998535641	59	-0.000457763555459678	dWE(1).Potential/dt < 1E-06 V/s	
7.40574598130229	-0.05780029296875	5.89999998510393	60	0.000356038333848119		
7.50574598104981	-0.057830810546875	5.99999998485146	61	-0.000661214056890458	dWE(1).Potential/dt < 1E-06 V/s	
7.60574598079734	-0.05780029296875	6.09999998459898	62	0.000915527110919356		
7.70574598054486	-0.05780029296875	6.1999999843465	63	-0.000457763555459678	dWE(1).Potential/dt < 1E-06 V/s	
7.80574598029239	-0.05780029296875	6.29999998409403	64	0.000101725236163475		
7.90574598003991	-0.05780029296875	6.39999998384155	65	0	dWE(1).Potential/dt < 1E-06 V/s	
8.00574597978743	-0.057830810546875	6.49999998358908	66	-0.000559488777071238	dWE(1).Potential/dt < 1E-06 V/s	
8.10574597953496	-0.05780029296875	6.5999999833366	67	0.000915527110919356		
8.20574597928248	-0.057830810546875	6.69999998308413	68	-0.00101725233253092	dWE(1).Potential/dt < 1E-06 V/s	
8.30574597903001	-0.057830810546875	6.79999998283165	69	0.000457763555459678		
8.40574597877753	-0.05780029296875	6.89999998257917	70	0.000457763555459678		
8.50574597852506	-0.057830810546875	6.9999999823267	71	-0.000915527110919356	dWE(1).Potential/dt < 1E-06 V/s	
8.60574597827258	-0.057830810546875	7.09999998207422	72	0.000457763555459678		
8.7057459780201	-0.057830810546875	7.19999998182175	73	-0.000101725236163475	dWE(1).Potential/dt < 1E-06 V/s	
8.80574597776763	-0.057830810546875	7.29999998156927	74	0	dWE(1).Potential/dt < 1E-06 V/s	
8.90574597751515	-0.05780029296875	7.3999999813168	75	0.000559488777071238		
9.00574597726268	-0.057830810546875	7.49999998106432	76	-0.000915527110919356	dWE(1).Potential/dt < 1E-06 V/s	
9.1057459770102	-0.057830810546875	7.59999998081184	77	0.000457763555459678		
9.20574597675773	-0.057830810546875	7.69999998055937	78	-0.000101725236163475	dWE(1).Potential/dt < 1E-06 V/s	
9.30574597650525	-0.05780029296875	7.79999998030689	79	0.000559488777071238		
9.40574597625277	-0.057830810546875	7.89999998005442	80	-0.000915527110919356	dWE(1).Potential/dt < 1E-06 V/s	
9.5057459760003	-0.057830810546875	7.99999997980194	81	0.000457763555459678		
9.60574597574782	-0.057830810546875	8.09999997954947	82	-0.000101725236163475	dWE(1).Potential/dt < 1E-06 V/s	
9.70574597549535	-0.057861328125	8.19999997929699	83	-0.000559488777071238	dWE(1).Potential/dt < 1E-06 V/s	
9.80574597524287	-0.057830810546875	8.29999997904451	84	0.000915527110919356		
9.9057459749904	-0.057830810546875	8.39999997879204	85	-0.000457763555459678	dWE(1).Potential/dt < 1E-06 V/s	
10.0057459747379	-0.057830810546875	8.49999997853956	86	0.000101725236163475		
10.1057459744854	-0.057830810546875	8.59999997828709	87	0	dWE(1).Potential/dt < 1E-06 V/s	
10.205745974233	-0.057830810546875	8.69999997803461	88	0	dWE(1).Potential/dt < 1E-06 V/s	
10.3057459739805	-0.057861328125	8.79999997778214	89	-0.000559488777071238	dWE(1).Potential/dt < 1E-06 V/s	
10.405745973728	-0.057861328125	8.89999997752966	90	0.000356038333848119		
10.5057459734755	-0.057830810546875	8.99999997727718	91	0.000457763555459678		
10.6057459732231	-0.057891845703125	9.09999997702471	92	-0.00147501588799059	dWE(1).Potential/dt < 1E-06 V/s	
10.7057459729706	-0.057891845703125	9.19999997677223	93	0.000813801889307797		
10.8057459727181	-0.057861328125	9.29999997651976	94	0.000356038333848119		
10.9057459724656	-0.057861328125	9.39999997626728	95	-0.000356038333848119	dWE(1).Potential/dt < 1E-06 V/s	
11.0057459722132	-0.057830810546875	9.49999997601481	96	0.000661214056890458		
11.1057459719607	-0.057861328125	9.59999997576233	97	-0.000915527110919356	dWE(1).Potential/dt < 1E-06 V/s	
11.2057459717082	-0.057861328125	9.69999997550985	98	0.000457763555459678		
11.3057459714557	-0.057861328125	9.79999997525738	99	-0.000101725236163475	dWE(1).Potential/dt < 1E-06 V/s	
11.4057459712033	-0.057861328125	9.8999999750049	100	0	dWE(1).Potential/dt < 1E-06 V/s	
11.5057459709508	-0.057861328125	9.99999997475243	101	0	dWE(1).Potential/dt < 1E-06 V/s	
11.6057459706983	-0.057861328125	10.0999999745	102	0	dWE(1).Potential/dt < 1E-06 V/s	
11.7057459704458	-0.057861328125	10.1999999742475	103	0	dWE(1).Potential/dt < 1E-06 V/s , dWE(1).Potential/dt > -1E-06 V/s	
11.8057459701934	-0.057861328125	10.299999973995	104	0	dWE(1).Potential/dt < 1E-06 V/s , dWE(1).Potential/dt > -1E-06 V/s	
11.9057459699409	-0.057861328125	10.3999999737425	105	0	dWE(1).Potential/dt < 1E-06 V/s , dWE(1).Potential/dt > -1E-06 V/s	
12.0057459696884	-0.057861328125	10.49999997349	106	0	dWE(1).Potential/dt < 1E-06 V/s , dWE(1).Potential/dt > -1E-06 V/s	
12.1057459694359	-0.057830810546875	10.5999999732376	107	0.000559488777071238		
12.2057459691835	-0.057861328125	10.6999999729851	108	-0.000915527110919356	dWE(1).Potential/dt < 1E-06 V/s	
12.305745968931	-0.057861328125	10.7999999727326	109	0.000457763555459678		
12.4057459686785	-0.057891845703125	10.8999999724801	110	-0.000661214056890458	dWE(1).Potential/dt < 1E-06 V/s	
12.505745968426	-0.057861328125	10.9999999722277	111	0.000915527110919356		
12.6057459681736	-0.057861328125	11.0999999719752	112	-0.000457763555459678	dWE(1).Potential/dt < 1E-06 V/s	
12.7057459679211	-0.057891845703125	11.1999999717227	113	-0.000457763555459678	dWE(1).Potential/dt < 1E-06 V/s	
12.8057459676686	-0.057861328125	11.2999999714702	114	0.000915527110919356		
12.9057459674161	-0.057891845703125	11.3999999712178	115	-0.00101725233253092	dWE(1).Potential/dt < 1E-06 V/s	
13.0057459671636	-0.057861328125	11.4999999709653	116	0.00101725233253092		
13.1057459669112	-0.057891845703125	11.5999999707128	117	-0.00101725233253092	dWE(1).Potential/dt < 1E-06 V/s	
13.2057459666587	-0.057891845703125	11.6999999704603	118	0.000457763555459678		
13.3057459664062	-0.057891845703125	11.7999999702079	119	-0.000101725236163475	dWE(1).Potential/dt < 1E-06 V/s	
13.4057459661537	-0.057891845703125	11.8999999699554	120	0	dWE(1).Potential/dt < 1E-06 V/s	
13.5057459659013	-0.057861328125	11.9999999697029	121	0.000559488777071238		
13.6057459656488	-0.057891845703125	12.0999999694504	122	-0.000915527110919356	dWE(1).Potential/dt < 1E-06 V/s	
13.7057459653963	-0.057891845703125	12.199999969198	123	0.000457763555459678		
13.8057459651438	-0.057861328125	12.2999999689455	124	0.000457763555459678		
13.9057459648914	-0.057861328125	12.399999968693	125	-0.000356038333848119	dWE(1).Potential/dt < 1E-06 V/s	
14.0057459646389	-0.057891845703125	12.4999999684405	126	-0.000457763555459678	dWE(1).Potential/dt < 1E-06 V/s	
14.1057459643864	-0.057891845703125	12.5999999681881	127	0.000356038333848119		
14.2057459641339	-0.05792236328125	12.6999999679356	128	-0.000661214056890458	dWE(1).Potential/dt < 1E-06 V/s	
14.3057459638815	-0.057891845703125	12.7999999676831	129	0.000915527110919356		
14.405745963629	-0.05792236328125	12.8999999674306	130	-0.00101725233253092	dWE(1).Potential/dt < 1E-06 V/s	
14.5057459633765	-0.057891845703125	12.9999999671782	131	0.00101725233253092		
14.605745963124	-0.057861328125	13.0999999669257	132	0.000101725236163475		
14.7057459628716	-0.057891845703125	13.1999999666732	133	-0.000813801889307797	dWE(1).Potential/dt < 1E-06 V/s	
14.8057459626191	-0.057891845703125	13.2999999664207	134	0.000457763555459678		
14.9057459623666	-0.057861328125	13.3999999661683	135	0.000457763555459678		
15.0057459621141	-0.05792236328125	13.4999999659158	136	-0.00147501588799059	dWE(1).Potential/dt < 1E-06 V/s	
15.1057459618617	-0.057861328125	13.5999999656633	137	0.00193277944345027		
15.2057459616092	-0.05792236328125	13.6999999654108	138	-0.00203450466506183	dWE(1).Potential/dt < 1E-06 V/s	
15.3057459613567	-0.057891845703125	13.7999999651583	139	0.00147501588799059		
15.4057459611042	-0.05792236328125	13.8999999649059	140	-0.00111897755414248	dWE(1).Potential/dt < 1E-06 V/s	
15.5057459608518	-0.057891845703125	13.9999999646534	141	0.00101725233253092		
15.6057459605993	-0.05792236328125	14.0999999644009	142	-0.00101725233253092	dWE(1).Potential/dt < 1E-06 V/s	
15.7057459603468	-0.057952880859375	14.1999999641484	143	-0.000101725236163475	dWE(1).Potential/dt < 1E-06 V/s	
15.8057459600943	-0.05792236328125	14.299999963896	144	0.000813801889307797		
15.9057459598419	-0.057891845703125	14.3999999636435	145	0.000101725236163475		
16.0057459595894	-0.057891845703125	14.499999963391	146	-0.000254313083132729	dWE(1).Potential/dt < 1E-06 V/s	
16.1057459593369	-0.05792236328125	14.5999999631385	147	-0.000457763555459678	dWE(1).Potential/dt < 1E-06 V/s	
16.2057459590844	-0.05792236328125	14.6999999628861	148	0.000356038333848119		
16.3057459588319	-0.05792236328125	14.7999999626336	149	-0.000101725236163475	dWE(1).Potential/dt < 1E-06 V/s	
16.4057459585795	-0.057891845703125	14.8999999623811	150	0.000559488777071238		
16.505745958327	-0.05792236328125	14.9999999621286	151	-0.000915527110919356	dWE(1).Potential/dt < 1E-06 V/s	
16.6057459580745	-0.057952880859375	15.0999999618762	152	-0.000101725236163475	dWE(1).Potential/dt < 1E-06 V/s	
16.705745957822	-0.05792236328125	15.1999999616237	153	0.000813801889307797		
16.8057459575696	-0.05792236328125	15.2999999613712	154	-0.000457763555459678	dWE(1).Potential/dt < 1E-06 V/s	
16.9057459573171	-0.05792236328125	15.3999999611187	155	0.000101725236163475		
17.0057459570646	-0.05792236328125	15.4999999608663	156	0	dWE(1).Potential/dt < 1E-06 V/s	
17.1057459568121	-0.057891845703125	15.5999999606138	157	0.000559488777071238		
17.2057459565597	-0.05792236328125	15.6999999603613	158	-0.000915527110919356	dWE(1).Potential/dt < 1E-06 V/s	
17.3057459563072	-0.057891845703125	15.7999999601088	159	0.00101725233253092		
17.4057459560547	-0.05792236328125	15.8999999598564	160	-0.00101725233253092	dWE(1).Potential/dt < 1E-06 V/s	
17.5057459558022	-0.05792236328125	15.9999999596039	161	0.000457763555459678		
17.6057459555498	-0.05792236328125	16.0999999593514	162	-0.000101725236163475	dWE(1).Potential/dt < 1E-06 V/s	
17.7057459552973	-0.057952880859375	16.1999999590989	163	-0.000559488777071238	dWE(1).Potential/dt < 1E-06 V/s	
17.8057459550448	-0.05792236328125	16.2999999588465	164	0.000915527110919356		
17.9057459547923	-0.05792236328125	16.399999958594	165	-0.000457763555459678	dWE(1).Potential/dt < 1E-06 V/s	
18.0057459545399	-0.05792236328125	16.4999999583415	166	0.000101725236163475		
18.1057459542874	-0.057952880859375	16.599999958089	167	-0.000559488777071238	dWE(1).Potential/dt < 1E-06 V/s	
18.2057459540349	-0.05792236328125	16.6999999578366	168	0.000915527110919356		
18.3057459537824	-0.057952880859375	16.7999999575841	169	-0.00101725233253092	dWE(1).Potential/dt < 1E-06 V/s	
18.40574595353	-0.05792236328125	16.8999999573316	170	0.00101725233253092		
18.5057459532775	-0.05792236328125	16.9999999570791	171	-0.000457763555459678	dWE(1).Potential/dt < 1E-06 V/s	
18.605745953025	-0.05792236328125	17.0999999568267	172	0.000101725236163475		
18.7057459527725	-0.05792236328125	17.1999999565742	173	0	dWE(1).Potential/dt < 1E-06 V/s	
18.8057459525201	-0.05792236328125	17.2999999563217	174	0	dWE(1).Potential/dt < 1E-06 V/s	
18.9057459522676	-0.057952880859375	17.3999999560692	175	-0.000559488777071238	dWE(1).Potential/dt < 1E-06 V/s	
19.0057459520151	-0.05792236328125	17.4999999558167	176	0.000915527110919356		
19.1057459517626	-0.057952880859375	17.5999999555643	177	-0.00101725233253092	dWE(1).Potential/dt < 1E-06 V/s	
19.2057459515102	-0.057952880859375	17.6999999553118	178	0.000457763555459678		
19.3057459512577	-0.05792236328125	17.7999999550593	179	0.000457763555459678		
19.4057459510052	-0.057952880859375	17.8999999548068	180	-0.000915527110919356	dWE(1).Potential/dt < 1E-06 V/s	
19.5057459507527	-0.05792236328125	17.9999999545544	181	0.00101725233253092		
19.6057459505003	-0.057952880859375	18.0999999543019	182	-0.00101725233253092	dWE(1).Potential/dt < 1E-06 V/s	
19.7057459502478	-0.05792236328125	18.1999999540494	183	0.00101725233253092		
19.8057459499953	-0.05792236328125	18.2999999537969	184	-0.000457763555459678	dWE(1).Potential/dt < 1E-06 V/s	
19.9057459497428	-0.05792236328125	18.3999999535445	185	0.000101725236163475		
20.0057459494903	-0.0579833984375	18.499999953292	186	-0.00111897755414248	dWE(1).Potential/dt < 1E-06 V/s	
20.1057459492379	-0.05792236328125	18.5999999530395	187	0.00183105422183871		
20.2057459489854	-0.057952880859375	18.699999952787	188	-0.00147501588799059	dWE(1).Potential/dt < 1E-06 V/s	
20.3057459487329	-0.057952880859375	18.7999999525346	189	0.000559488777071238		
20.4057459484804	-0.05792236328125	18.8999999522821	190	0.000457763555459678		
20.505745948228	-0.05792236328125	18.9999999520296	191	-0.000356038333848119	dWE(1).Potential/dt < 1E-06 V/s	
20.6057459479755	-0.057952880859375	19.0999999517771	192	-0.000457763555459678	dWE(1).Potential/dt < 1E-06 V/s	
20.705745947723	-0.057952880859375	19.1999999515247	193	0.000356038333848119		
20.8057459474705	-0.057952880859375	19.2999999512722	194	-0.000101725236163475	dWE(1).Potential/dt < 1E-06 V/s	
20.9057459472181	-0.057952880859375	19.3999999510197	195	0	dWE(1).Potential/dt < 1E-06 V/s	
21.0057459469656	-0.057952880859375	19.4999999507672	196	0	dWE(1).Potential/dt < 1E-06 V/s	
21.1057459467131	-0.057952880859375	19.5999999505148	197	0	dWE(1).Potential/dt < 1E-06 V/s	
21.2057459464606	-0.0579833984375	19.6999999502623	198	-0.000559488777071238	dWE(1).Potential/dt < 1E-06 V/s	
21.3057459462082	-0.05792236328125	19.7999999500098	199	0.00147501588799059		
21.4057459459557	-0.057952880859375	19.8999999497573	200	-0.00137329066637903	dWE(1).Potential/dt < 1E-06 V/s	
21.5057459457032	-0.0579833984375	19.9999999495049	201	0	dWE(1).Potential/dt < 1E-06 V/s	
21.6057459454507	-0.057952880859375	20.0999999492524	202	0.000813801889307797		
21.7057459451983	-0.05792236328125	20.1999999489999	203	0.000101725236163475		
21.8057459449458	-0.0579833984375	20.2999999487474	204	-0.00137329066637903	dWE(1).Potential/dt < 1E-06 V/s	
21.9057459446933	-0.0579833984375	20.399999948495	205	0.000813801889307797		
22.0057459444408	-0.0579833984375	20.4999999482425	206	-0.000203450472326949	dWE(1).Potential/dt < 1E-06 V/s	
22.1057459441884	-0.057952880859375	20.59999994799	207	0.000559488777071238		
22.2057459439359	-0.0579833984375	20.6999999477375	208	-0.000915527110919356	dWE(1).Potential/dt < 1E-06 V/s	
22.3057459436834	-0.0579833984375	20.799999947485	209	0.000457763555459678		
22.4057459434309	-0.0579833984375	20.8999999472326	210	-0.000101725236163475	dWE(1).Potential/dt < 1E-06 V/s	
22.5057459431785	-0.0579833984375	20.9999999469801	211	0	dWE(1).Potential/dt < 1E-06 V/s	
22.605745942926	-0.057952880859375	21.0999999467276	212	0.000559488777071238		
22.7057459426735	-0.0579833984375	21.1999999464751	213	-0.000915527110919356	dWE(1).Potential/dt < 1E-06 V/s	
22.805745942421	-0.057952880859375	21.2999999462227	214	0.00101725233253092		
22.9057459421686	-0.057952880859375	21.3999999459702	215	-0.000457763555459678	dWE(1).Potential/dt < 1E-06 V/s	
23.0057459419161	-0.0579833984375	21.4999999457177	216	-0.000457763555459678	dWE(1).Potential/dt < 1E-06 V/s	
23.1057459416636	-0.058013916015625	21.5999999454652	217	-0.000203450472326949	dWE(1).Potential/dt < 1E-06 V/s	
23.2057459414111	-0.057952880859375	21.6999999452128	218	0.00137329066637903		
23.3057459411586	-0.0579833984375	21.7999999449603	219	-0.00137329066637903	dWE(1).Potential/dt < 1E-06 V/s	
23.4057459409062	-0.057952880859375	21.8999999447078	220	0.00111897755414248		
23.5057459406537	-0.0579833984375	21.9999999444553	221	-0.00101725233253092	dWE(1).Potential/dt < 1E-06 V/s	
23.6057459404012	-0.057952880859375	22.0999999442029	222	0.00101725233253092		
23.7057459401487	-0.0579833984375	22.1999999439504	223	-0.00101725233253092	dWE(1).Potential/dt < 1E-06 V/s	
23.8057459398963	-0.057952880859375	22.2999999436979	224	0.00101725233253092		
23.9057459396438	-0.0579833984375	22.3999999434454	225	-0.00101725233253092	dWE(1).Potential/dt < 1E-06 V/s	
24.0057459393913	-0.057952880859375	22.499999943193	226	0.00101725233253092		
24.1057459391388	-0.0579833984375	22.5999999429405	227	-0.00101725233253092	dWE(1).Potential/dt < 1E-06 V/s	
24.2057459388864	-0.0579833984375	22.699999942688	228	0.000457763555459678		
24.3057459386339	-0.0579833984375	22.7999999424355	229	-0.000101725236163475	dWE(1).Potential/dt < 1E-06 V/s	
24.4057459383814	-0.058013916015625	22.8999999421831	230	-0.000559488777071238	dWE(1).Potential/dt < 1E-06 V/s	
24.5057459381289	-0.0579833984375	22.9999999419306	231	0.000915527110919356		
24.6057459378765	-0.0579833984375	23.0999999416781	232	-0.000457763555459678	dWE(1).Potential/dt < 1E-06 V/s	
24.705745937624	-0.0579833984375	23.1999999414256	233	0.000101725236163475		
24.8057459373715	-0.0579833984375	23.2999999411732	234	0	dWE(1).Potential/dt < 1E-06 V/s	
24.905745937119	-0.0579833984375	23.3999999409207	235	0	dWE(1).Potential/dt < 1E-06 V/s	
25.0057459368666	-0.058013916015625	23.4999999406682	236	-0.000559488777071238	dWE(1).Potential/dt < 1E-06 V/s	
25.1057459366141	-0.0579833984375	23.5999999404157	237	0.000915527110919356		
25.2057459363616	-0.0579833984375	23.6999999401633	238	-0.000457763555459678	dWE(1).Potential/dt < 1E-06 V/s	
25.3057459361091	-0.058013916015625	23.7999999399108	239	-0.000457763555459678	dWE(1).Potential/dt < 1E-06 V/s	
25.4057459358567	-0.0579833984375	23.8999999396583	240	0.000915527110919356		
25.5057459356042	-0.0579833984375	23.9999999394058	241	-0.000457763555459678	dWE(1).Potential/dt < 1E-06 V/s	
25.6057459353517	-0.058013916015625	24.0999999391533	242	-0.000457763555459678	dWE(1).Potential/dt < 1E-06 V/s	
25.7057459350992	-0.0579833984375	24.1999999389009	243	0.000915527110919356		
25.8057459348468	-0.0579833984375	24.2999999386484	244	-0.000457763555459678	dWE(1).Potential/dt < 1E-06 V/s	
25.9057459345943	-0.058013916015625	24.3999999383959	245	-0.000457763555459678	dWE(1).Potential/dt < 1E-06 V/s	
26.0057459343418	-0.0579833984375	24.4999999381434	246	0.000915527110919356		
26.1057459340893	-0.0579833984375	24.599999937891	247	-0.000457763555459678	dWE(1).Potential/dt < 1E-06 V/s	
26.2057459338369	-0.0579833984375	24.6999999376385	248	0.000101725236163475		
26.3057459335844	-0.0579833984375	24.799999937386	249	0	dWE(1).Potential/dt < 1E-06 V/s	
26.4057459333319	-0.0579833984375	24.8999999371335	250	0	dWE(1).Potential/dt < 1E-06 V/s	
26.5057459330794	-0.058013916015625	24.9999999368811	251	-0.000559488777071238	dWE(1).Potential/dt < 1E-06 V/s	
26.6057459328269	-0.0579833984375	25.0999999366286	252	0.000915527110919356		
26.7057459325745	-0.0579833984375	25.1999999363761	253	-0.000457763555459678	dWE(1).Potential/dt < 1E-06 V/s	
26.805745932322	-0.057952880859375	25.2999999361236	254	0.000661214056890458		
26.9057459320695	-0.058013916015625	25.3999999358712	255	-0.00147501588799059	dWE(1).Potential/dt < 1E-06 V/s	
27.005745931817	-0.057952880859375	25.4999999356187	256	0.00193277944345027		
27.1057459315646	-0.058013916015625	25.5999999353662	257	-0.00203450466506183	dWE(1).Potential/dt < 1E-06 V/s	
27.2057459313121	-0.0579833984375	25.6999999351137	258	0.00147501588799059		
27.3057459310596	-0.0579833984375	25.7999999348613	259	-0.000559488777071238	dWE(1).Potential/dt < 1E-06 V/s	
27.4057459308071	-0.058013916015625	25.8999999346088	260	-0.000457763555459678	dWE(1).Potential/dt < 1E-06 V/s	
27.5057459305547	-0.0579833984375	25.9999999343563	261	0.000915527110919356		
27.6057459303022	-0.05804443359375	26.0999999341038	262	-0.00157674110960215	dWE(1).Potential/dt < 1E-06 V/s	
27.7057459300497	-0.0579833984375	26.1999999338514	263	0.00193277944345027		
27.8057459297972	-0.0579833984375	26.2999999335989	264	-0.000915527110919356	dWE(1).Potential/dt < 1E-06 V/s	
27.9057459295448	-0.0579833984375	26.3999999333464	265	0.000203450472326949		
28.0057459292923	-0.058013916015625	26.4999999330939	266	-0.000559488777071238	dWE(1).Potential/dt < 1E-06 V/s	
28.1057459290398	-0.058013916015625	26.5999999328415	267	0.000356038333848119		
28.2057459287873	-0.0579833984375	26.699999932589	268	0.000457763555459678		
28.3057459285349	-0.05804443359375	26.7999999323365	269	-0.00147501588799059	dWE(1).Potential/dt < 1E-06 V/s	
28.4057459282824	-0.05804443359375	26.899999932084	270	0.000813801889307797		
28.5057459280299	-0.0579833984375	26.9999999318316	271	0.000915527110919356		
28.6057459277774	-0.058013916015625	27.0999999315791	272	-0.00127156544476748	dWE(1).Potential/dt < 1E-06 V/s	
28.705745927525	-0.058013916015625	27.1999999313266	273	0.000559488777071238		
28.8057459272725	-0.057952880859375	27.2999999310741	274	0.00101725233253092		
28.90574592702	-0.058013916015625	27.3999999308217	275	-0.00183105422183871	dWE(1).Potential/dt < 1E-06 V/s	
29.0057459267675	-0.058013916015625	27.4999999305692	276	0.000915527110919356		
29.1057459265151	-0.058013916015625	27.5999999303167	277	-0.000203450472326949	dWE(1).Potential/dt < 1E-06 V/s	
29.2057459262626	-0.058013916015625	27.6999999300642	278	0	dWE(1).Potential/dt < 1E-06 V/s	
29.3057459260101	-0.05804443359375	27.7999999298117	279	-0.000559488777071238	dWE(1).Potential/dt < 1E-06 V/s	
29.4057459257576	-0.058013916015625	27.8999999295593	280	0.000915527110919356		
29.5057459255052	-0.0579833984375	27.9999999293068	281	0.000101725236163475		
29.6057459252527	-0.058013916015625	28.0999999290543	282	-0.000813801889307797	dWE(1).Potential/dt < 1E-06 V/s	
29.7057459250002	-0.058013916015625	28.1999999288018	283	0.000457763555459678		
29.8057459247477	-0.0579833984375	28.2999999285494	284	0.000457763555459678		
29.9057459244953	-0.058013916015625	28.3999999282969	285	-0.000915527110919356	dWE(1).Potential/dt < 1E-06 V/s	
30.0057459242428	-0.058013916015625	28.4999999280444	286	0.000457763555459678		
30.1057459239903	-0.0579833984375	28.5999999277919	287	0.000457763555459678		
30.2057459237378	-0.058013916015625	28.6999999275395	288	-0.000915527110919356	dWE(1).Potential/dt < 1E-06 V/s	
30.3057459234853	-0.0579833984375	28.799999927287	289	0.00101725233253092		
30.4057459232329	-0.05804443359375	28.8999999270345	290	-0.00157674110960215	dWE(1).Potential/dt < 1E-06 V/s	
30.5057459229804	-0.05804443359375	28.999999926782	291	0.000813801889307797		
30.6057459227279	-0.058013916015625	29.0999999265296	292	0.000356038333848119		
30.7057459224754	-0.058013916015625	29.1999999262771	293	-0.000356038333848119	dWE(1).Potential/dt < 1E-06 V/s	
30.805745922223	-0.05804443359375	29.2999999260246	294	-0.000457763555459678	dWE(1).Potential/dt < 1E-06 V/s	
30.9057459219705	-0.058013916015625	29.3999999257721	295	0.000915527110919356		
31.005745921718	-0.058013916015625	29.4999999255197	296	-0.000457763555459678	dWE(1).Potential/dt < 1E-06 V/s	
31.1057459214655	-0.058013916015625	29.5999999252672	297	0.000101725236163475		
31.2057459212131	-0.058013916015625	29.6999999250147	298	0	dWE(1).Potential/dt < 1E-06 V/s	
31.3057459209606	-0.058013916015625	29.7999999247622	299	0	dWE(1).Potential/dt < 1E-06 V/s	
31.4057459207081	-0.058013916015625	29.8999999245098	300	0	dWE(1).Potential/dt < 1E-06 V/s	
31.5057459204556	-0.05804443359375	29.9999999242573	301	-0.000559488777071238	dWE(1).Potential/dt < 1E-06 V/s	
31.6057459202032	-0.05804443359375	30.0999999240048	302	0.000356038333848119		
31.7057459199507	-0.05804443359375	30.1999999237523	303	-0.000101725236163475	dWE(1).Potential/dt < 1E-06 V/s	
31.8057459196982	-0.058013916015625	30.2999999234999	304	0.000559488777071238		
31.9057459194457	-0.05804443359375	30.3999999232474	305	-0.000915527110919356	dWE(1).Potential/dt < 1E-06 V/s	
32.0057459191933	-0.05804443359375	30.4999999229949	306	0.000457763555459678		
32.1057459189408	-0.05804443359375	30.5999999227424	307	-0.000101725236163475	dWE(1).Potential/dt < 1E-06 V/s	
32.2057459186883	-0.05804443359375	30.69999992249	308	0	dWE(1).Potential/dt < 1E-06 V/s	
32.3057459184358	-0.058013916015625	30.7999999222375	309	0.000559488777071238		
32.4057459181834	-0.05804443359375	30.899999921985	310	-0.000915527110919356	dWE(1).Potential/dt < 1E-06 V/s	
32.5057459179309	-0.058013916015625	30.9999999217325	311	0.00101725233253092		
32.6057459176784	-0.05804443359375	31.09999992148	312	-0.00101725233253092	dWE(1).Potential/dt < 1E-06 V/s	
32.7057459174259	-0.058013916015625	31.1999999212276	313	0.00101725233253092		
32.8057459171735	-0.05804443359375	31.2999999209751	314	-0.00101725233253092	dWE(1).Potential/dt < 1E-06 V/s	
32.905745916921	-0.05804443359375	31.3999999207226	315	0.000457763555459678		
33.0057459166685	-0.05804443359375	31.4999999204701	316	-0.000101725236163475	dWE(1).Potential/dt < 1E-06 V/s	
33.105745916416	-0.05804443359375	31.5999999202177	317	0	dWE(1).Potential/dt < 1E-06 V/s	
33.2057459161636	-0.05804443359375	31.6999999199652	318	0	dWE(1).Potential/dt < 1E-06 V/s	
33.3057459159111	-0.05804443359375	31.7999999197127	319	0	dWE(1).Potential/dt < 1E-06 V/s	
33.4057459156586	-0.05804443359375	31.8999999194602	320	0	dWE(1).Potential/dt < 1E-06 V/s , dWE(1).Potential/dt > -1E-06 V/s	
33.5057459154061	-0.058074951171875	31.9999999192078	321	-0.000559488777071238	dWE(1).Potential/dt < 1E-06 V/s	
33.6057459151536	-0.058013916015625	32.0999999189553	322	0.00147501588799059		
33.7057459149012	-0.05804443359375	32.1999999187028	323	-0.00137329066637903	dWE(1).Potential/dt < 1E-06 V/s	
33.8057459146487	-0.058074951171875	32.2999999184503	324	0	dWE(1).Potential/dt < 1E-06 V/s	
33.9057459143962	-0.05804443359375	32.3999999181979	325	0.000813801889307797		
34.0057459141437	-0.05804443359375	32.4999999179454	326	-0.000457763555459678	dWE(1).Potential/dt < 1E-06 V/s	
34.1057459138913	-0.05804443359375	32.5999999176929	327	0.000101725236163475		
34.2057459136388	-0.05804443359375	32.6999999174404	328	0	dWE(1).Potential/dt < 1E-06 V/s	
34.3057459133863	-0.05804443359375	32.799999917188	329	0	dWE(1).Potential/dt < 1E-06 V/s	
34.4057459131338	-0.05804443359375	32.8999999169355	330	0	dWE(1).Potential/dt < 1E-06 V/s	
34.5057459128814	-0.058013916015625	32.999999916683	331	0.000559488777071238		
34.6057459126289	-0.05804443359375	33.0999999164305	332	-0.000915527110919356	dWE(1).Potential/dt < 1E-06 V/s	
34.7057459123764	-0.05804443359375	33.1999999161781	333	0.000457763555459678		
34.8057459121239	-0.058074951171875	33.2999999159256	334	-0.000661214056890458	dWE(1).Potential/dt < 1E-06 V/s	
34.9057459118715	-0.05804443359375	33.3999999156731	335	0.000915527110919356		
35.005745911619	-0.058074951171875	33.4999999154206	336	-0.00101725233253092	dWE(1).Potential/dt < 1E-06 V/s	
35.1057459113665	-0.05804443359375	33.5999999151682	337	0.00101725233253092		
35.205745911114	-0.05804443359375	33.6999999149157	338	-0.000457763555459678	dWE(1).Potential/dt < 1E-06 V/s	
35.3057459108616	-0.05804443359375	33.7999999146632	339	0.000101725236163475		
35.4057459106091	-0.05804443359375	33.8999999144107	340	0	dWE(1).Potential/dt < 1E-06 V/s	
35.5057459103566	-0.05804443359375	33.9999999141583	341	0	dWE(1).Potential/dt < 1E-06 V/s	
35.6057459101041	-0.058074951171875	34.0999999139058	342	-0.000559488777071238	dWE(1).Potential/dt < 1E-06 V/s	
35.7057459098517	-0.05804443359375	34.1999999136533	343	0.000915527110919356		
35.8057459095992	-0.058074951171875	34.2999999134008	344	-0.00101725233253092	dWE(1).Potential/dt < 1E-06 V/s	
35.9057459093467	-0.05804443359375	34.3999999131483	345	0.00101725233253092		
36.0057459090942	-0.05804443359375	34.4999999128959	346	-0.000457763555459678	dWE(1).Potential/dt < 1E-06 V/s	
36.1057459088418	-0.05804443359375	34.5999999126434	347	0.000101725236163475		
36.2057459085893	-0.05804443359375	34.6999999123909	348	0	dWE(1).Potential/dt < 1E-06 V/s	
36.3057459083368	-0.05804443359375	34.7999999121384	349	0	dWE(1).Potential/dt < 1E-06 V/s	
36.4057459080843	-0.05804443359375	34.899999911886	350	0	dWE(1).Potential/dt < 1E-06 V/s	
36.5057459078319	-0.05804443359375	34.9999999116335	351	0	dWE(1).Potential/dt < 1E-06 V/s	
36.6057459075794	-0.05804443359375	35.099999911381	352	0	dWE(1).Potential/dt < 1E-06 V/s , dWE(1).Potential/dt > -1E-06 V/s	
36.7057459073269	-0.058074951171875	35.1999999111285	353	-0.000559488777071238	dWE(1).Potential/dt < 1E-06 V/s	
36.8057459070744	-0.058074951171875	35.2999999108761	354	0.000356038333848119		
36.9057459068219	-0.05804443359375	35.3999999106236	355	0.000457763555459678		
37.0057459065695	-0.058074951171875	35.4999999103711	356	-0.000915527110919356	dWE(1).Potential/dt < 1E-06 V/s	
37.105745906317	-0.058074951171875	35.5999999101186	357	0.000457763555459678		
37.2057459060645	-0.05804443359375	35.6999999098662	358	0.000457763555459678		
37.305745905812	-0.058074951171875	35.7999999096137	359	-0.000915527110919356	dWE(1).Potential/dt < 1E-06 V/s	
37.4057459055596	-0.05804443359375	35.8999999093612	360	0.00101725233253092		
37.5057459053071	-0.058074951171875	35.9999999091087	361	-0.00101725233253092	dWE(1).Potential/dt < 1E-06 V/s	
37.6057459050546	-0.05804443359375	36.0999999088563	362	0.00101725233253092		
37.7057459048021	-0.05804443359375	36.1999999086038	363	-0.000457763555459678	dWE(1).Potential/dt < 1E-06 V/s	
37.8057459045497	-0.058074951171875	36.2999999083513	364	-0.000457763555459678	dWE(1).Potential/dt < 1E-06 V/s	
37.9057459042972	-0.05804443359375	36.3999999080988	365	0.000915527110919356		
38.0057459040447	-0.05804443359375	36.4999999078464	366	-0.000457763555459678	dWE(1).Potential/dt < 1E-06 V/s	
38.1057459037922	-0.058013916015625	36.5999999075939	367	0.000661214056890458		
38.2057459035398	-0.05804443359375	36.6999999073414	368	-0.000915527110919356	dWE(1).Potential/dt < 1E-06 V/s	
38.3057459032873	-0.058074951171875	36.7999999070889	369	-0.000101725236163475	dWE(1).Potential/dt < 1E-06 V/s	
38.4057459030348	-0.058074951171875	36.8999999068365	370	0.000254313083132729		
38.5057459027823	-0.058074951171875	36.999999906584	371	-0.000101725236163475	dWE(1).Potential/dt < 1E-06 V/s	
38.6057459025299	-0.058074951171875	37.0999999063315	372	0	dWE(1).Potential/dt < 1E-06 V/s	
38.7057459022774	-0.05804443359375	37.199999906079	373	0.000559488777071238		
38.8057459020249	-0.058074951171875	37.2999999058266	374	-0.000915527110919356	dWE(1).Potential/dt < 1E-06 V/s	
38.9057459017724	-0.058074951171875	37.3999999055741	375	0.000457763555459678		
39.00574590152	-0.058074951171875	37.4999999053216	376	-0.000101725236163475	dWE(1).Potential/dt < 1E-06 V/s	
39.1057459012675	-0.058074951171875	37.5999999050691	377	0	dWE(1).Potential/dt < 1E-06 V/s	
39.205745901015	-0.058074951171875	37.6999999048167	378	0	dWE(1).Potential/dt < 1E-06 V/s	
39.3057459007625	-0.058074951171875	37.7999999045642	379	0	dWE(1).Potential/dt < 1E-06 V/s	
39.4057459005101	-0.05804443359375	37.8999999043117	380	0.000559488777071238		
39.5057459002576	-0.05804443359375	37.9999999040592	381	-0.000356038333848119	dWE(1).Potential/dt < 1E-06 V/s	
39.6057459000051	-0.05804443359375	38.0999999038067	382	0.000101725236163475		
39.7057458997526	-0.05804443359375	38.1999999035543	383	0	dWE(1).Potential/dt < 1E-06 V/s	
39.8057458995002	-0.058074951171875	38.2999999033018	384	-0.000559488777071238	dWE(1).Potential/dt < 1E-06 V/s	
39.9057458992477	-0.05804443359375	38.3999999030493	385	0.000915527110919356		
40.0057458989952	-0.058074951171875	38.4999999027968	386	-0.00101725233253092	dWE(1).Potential/dt < 1E-06 V/s	
40.1057458987427	-0.058074951171875	38.5999999025444	387	0.000457763555459678		
40.2057458984903	-0.058074951171875	38.6999999022919	388	-0.000101725236163475	dWE(1).Potential/dt < 1E-06 V/s	
40.3057458982378	-0.058074951171875	38.7999999020394	389	0	dWE(1).Potential/dt < 1E-06 V/s	
40.4057458979853	-0.05804443359375	38.8999999017869	390	0.000559488777071238		
40.5057458977328	-0.058074951171875	38.9999999015345	391	-0.000915527110919356	dWE(1).Potential/dt < 1E-06 V/s	
40.6057458974803	-0.058074951171875	39.099999901282	392	0.000457763555459678		
40.7057458972279	-0.058074951171875	39.1999999010295	393	-0.000101725236163475	dWE(1).Potential/dt < 1E-06 V/s	
40.8057458969754	-0.05804443359375	39.299999900777	394	0.000559488777071238		
40.9057458967229	-0.05804443359375	39.3999999005246	395	-0.000356038333848119	dWE(1).Potential/dt < 1E-06 V/s	
41.0057458964704	-0.058074951171875	39.4999999002721	396	-0.000457763555459678	dWE(1).Potential/dt < 1E-06 V/s	
41.105745896218	-0.058074951171875	39.5999999000196	397	0.000356038333848119		
41.2057458959655	-0.058074951171875	39.6999998997671	398	-0.000101725236163475	dWE(1).Potential/dt < 1E-06 V/s	
41.305745895713	-0.058074951171875	39.7999998995147	399	0	dWE(1).Potential/dt < 1E-06 V/s	
41.4057458954605	-0.058074951171875	39.8999998992622	400	0	dWE(1).Potential/dt < 1E-06 V/s	
41.5057458952081	-0.058074951171875	39.9999998990097	401	0	dWE(1).Potential/dt < 1E-06 V/s	
41.6057458949556	-0.058074951171875	40.0999998987572	402	0	dWE(1).Potential/dt < 1E-06 V/s , dWE(1).Potential/dt > -1E-06 V/s	
41.7057458947031	-0.05810546875	40.1999998985048	403	-0.000559488777071238	dWE(1).Potential/dt < 1E-06 V/s	
41.8057458944506	-0.05810546875	40.2999998982523	404	0.000356038333848119		
41.9057458941982	-0.058074951171875	40.3999998979998	405	0.000457763555459678		
42.0057458939457	-0.058074951171875	40.4999998977473	406	-0.000356038333848119	dWE(1).Potential/dt < 1E-06 V/s	
42.1057458936932	-0.058074951171875	40.5999998974949	407	0.000101725236163475		
42.2057458934407	-0.058074951171875	40.6999998972424	408	0	dWE(1).Potential/dt < 1E-06 V/s	
42.3057458931883	-0.05810546875	40.7999998969899	409	-0.000559488777071238	dWE(1).Potential/dt < 1E-06 V/s	
42.4057458929358	-0.058074951171875	40.8999998967374	410	0.000915527110919356		
42.5057458926833	-0.058074951171875	40.999999896485	411	-0.000457763555459678	dWE(1).Potential/dt < 1E-06 V/s	
42.6057458924308	-0.058074951171875	41.0999998962325	412	0.000101725236163475		
42.7057458921784	-0.058074951171875	41.19999989598	413	0	dWE(1).Potential/dt < 1E-06 V/s	
42.8057458919259	-0.05810546875	41.2999998957275	414	-0.000559488777071238	dWE(1).Potential/dt < 1E-06 V/s	
42.9057458916734	-0.058074951171875	41.399999895475	415	0.000915527110919356		
43.0057458914209	-0.058074951171875	41.4999998952226	416	-0.000457763555459678	dWE(1).Potential/dt < 1E-06 V/s	
43.1057458911685	-0.05810546875	41.5999998949701	417	-0.000457763555459678	dWE(1).Potential/dt < 1E-06 V/s	
43.205745890916	-0.05810546875	41.6999998947176	418	0.000356038333848119		
43.3057458906635	-0.058074951171875	41.7999998944651	419	0.000457763555459678		
43.405745890411	-0.058074951171875	41.8999998942127	420	-0.000356038333848119	dWE(1).Potential/dt < 1E-06 V/s	
43.5057458901586	-0.05810546875	41.9999998939602	421	-0.000457763555459678	dWE(1).Potential/dt < 1E-06 V/s	
43.6057458899061	-0.05810546875	42.0999998937077	422	0.000356038333848119		
43.7057458896536	-0.058074951171875	42.1999998934552	423	0.000457763555459678		
43.8057458894011	-0.05810546875	42.2999998932028	424	-0.000915527110919356	dWE(1).Potential/dt < 1E-06 V/s	
43.9057458891486	-0.05810546875	42.3999998929503	425	0.000457763555459678		
44.0057458888962	-0.05810546875	42.4999998926978	426	-0.000101725236163475	dWE(1).Potential/dt < 1E-06 V/s	
44.1057458886437	-0.05810546875	42.5999998924453	427	0	dWE(1).Potential/dt < 1E-06 V/s	
44.2057458883912	-0.058074951171875	42.6999998921929	428	0.000559488777071238		
44.3057458881387	-0.05810546875	42.7999998919404	429	-0.000915527110919356	dWE(1).Potential/dt < 1E-06 V/s	
44.4057458878863	-0.058074951171875	42.8999998916879	430	0.00101725233253092		
44.5057458876338	-0.058074951171875	42.9999998914354	431	-0.000457763555459678	dWE(1).Potential/dt < 1E-06 V/s	
44.6057458873813	-0.058135986328125	43.099999891183	432	-0.00101725233253092	dWE(1).Potential/dt < 1E-06 V/s	
44.7057458871288	-0.058074951171875	43.1999998909305	433	0.00183105422183871		
44.8057458868764	-0.058074951171875	43.299999890678	434	-0.000915527110919356	dWE(1).Potential/dt < 1E-06 V/s	
44.9057458866239	-0.05810546875	43.3999998904255	435	-0.000356038333848119	dWE(1).Potential/dt < 1E-06 V/s	
45.0057458863714	-0.058074951171875	43.4999998901731	436	0.000915527110919356		
45.1057458861189	-0.058074951171875	43.5999998899206	437	-0.000457763555459678	dWE(1).Potential/dt < 1E-06 V/s	
45.2057458858665	-0.058074951171875	43.6999998896681	438	0.000101725236163475		
45.305745885614	-0.058074951171875	43.7999998894156	439	0	dWE(1).Potential/dt < 1E-06 V/s	
45.4057458853615	-0.058074951171875	43.8999998891632	440	0	dWE(1).Potential/dt < 1E-06 V/s	
45.505745885109	-0.058074951171875	43.9999998889107	441	0	dWE(1).Potential/dt < 1E-06 V/s	
45.6057458848566	-0.05810546875	44.0999998886582	442	-0.000559488777071238	dWE(1).Potential/dt < 1E-06 V/s	
45.7057458846041	-0.05810546875	44.1999998884057	443	0.000356038333848119		
45.8057458843516	-0.058074951171875	44.2999998881533	444	0.000457763555459678		
45.9057458840991	-0.05810546875	44.3999998879008	445	-0.000915527110919356	dWE(1).Potential/dt < 1E-06 V/s	
46.0057458838467	-0.05810546875	44.4999998876483	446	0.000457763555459678		
46.1057458835942	-0.05810546875	44.5999998873958	447	-0.000101725236163475	dWE(1).Potential/dt < 1E-06 V/s	
46.2057458833417	-0.05810546875	44.6999998871433	448	0	dWE(1).Potential/dt < 1E-06 V/s	
46.3057458830892	-0.05810546875	44.7999998868909	449	0	dWE(1).Potential/dt < 1E-06 V/s	
46.4057458828368	-0.05810546875	44.8999998866384	450	0	dWE(1).Potential/dt < 1E-06 V/s	
46.5057458825843	-0.05810546875	44.9999998863859	451	0	dWE(1).Potential/dt < 1E-06 V/s , dWE(1).Potential/dt > -1E-06 V/s	
46.6057458823318	-0.05810546875	45.0999998861334	452	0	dWE(1).Potential/dt < 1E-06 V/s , dWE(1).Potential/dt > -1E-06 V/s	
46.7057458820793	-0.05810546875	45.199999885881	453	0	dWE(1).Potential/dt < 1E-06 V/s , dWE(1).Potential/dt > -1E-06 V/s	
46.8057458818269	-0.05810546875	45.2999998856285	454	0	dWE(1).Potential/dt < 1E-06 V/s , dWE(1).Potential/dt > -1E-06 V/s	
46.9057458815744	-0.05810546875	45.399999885376	455	0	dWE(1).Potential/dt < 1E-06 V/s , dWE(1).Potential/dt > -1E-06 V/s	
