Time (s)	WE(1).Potential (V)	Corrected time (s)	Index	dWE(1).Potential/dt (V/s)	OCP value (V)
4.35227498901156	-0.0199066162109375	0	1	0	-0.0190332150926777
4.45227498875909	-0.0198883056640625	0.0999999997475243	2	0.000183098192792386	
4.55227498850661	-0.019903564453125	0.199999999495049	3	-0.000320440478390083	
4.65227498825413	-0.0198974609375	0.299999999242573	4	0.00035096614737995	
4.75227498800166	-0.01990966796875	0.399999998990097	5	-0.000345899752574041	
4.85227498774918	-0.01988525390625	0.499999998737621	6	0.000610383169259876	
4.95227498749671	-0.019903564453125	0.599999998485146	7	-0.00066123966826126	
5.05227498724423	-0.0198822021484375	0.69999999823267	8	0.000686683400999755	
5.15227498699176	-0.019903564453125	0.799999997980194	9	-0.000701932294759899	
5.25227498673928	-0.0198760986328125	0.899999997727718	10	0.000824016402475536	
5.3522749864868	-0.019879150390625	0.999999997475243	11	-0.00044765614438802	
5.45227498623433	-0.0198883056640625	1.09999999722277	12	-4.06740000471473E-05	
5.55227498598185	-0.019891357421875	1.19999999697029	13	4.07236693718005E-05	
5.65227498572938	-0.01988525390625	1.29999999671782	14	0.000116961811727379	
5.7522749854769	-0.0199005126953125	1.39999999646534	15	-0.000361098936991766	
5.85227498522443	-0.01988525390625	1.49999999621286	16	0.000478122849017382	
5.95227498497195	-0.0198760986328125	1.59999999596039	17	-6.10327297181357E-05	
6.05227498471947	-0.0198944091796875	1.69999999570791	18	-0.000391689827665687	
6.152274984467	-0.0198883056640625	1.79999999545544	19	0.00035605116863735	
6.25227498421452	-0.0198883056640625	1.89999999520296	20	-0.000132229310111143	
6.35227498396205	-0.0198699951171875	1.99999999495049	21	0.00035607599420473	
6.45227498370957	-0.0198577880859375	2.09999999469801	22	1.01390078270924E-05	
6.5522749834571	-0.0198699951171875	2.19999999444553	23	-0.000305120192933828	
6.65227498320462	-0.0198822021484375	2.29999999419306	24	-4.07174629799556E-05	
6.75227498295214	-0.0198760986328125	2.39999999394058	25	0.000213639388675801	
6.85227498269967	-0.019873046875	2.49999999368811	26	-5.59911677555647E-05	
6.95227498244719	-0.01988525390625	2.59999999343563	27	-0.000238990018260665	
7.05227498219472	-0.0198760986328125	2.69999999318316	28	0.000320418737828732	
7.15227498194224	-0.019873046875	2.79999999293068	29	-9.15863492991775E-05	
7.25227498168977	-0.019879150390625	2.8999999926782	30	-0.000116961811727379	
7.35227498143729	-0.019873046875	2.99999999242573	31	0.0001932620361913	
7.45227498118481	-0.0198760986328125	3.09999999217325	32	-0.000147465761983767	
7.55227498093234	-0.0198577880859375	3.19999999192078	33	0.000391590467188507	
7.65227498067986	-0.019873046875	3.2999999916683	34	-0.000503504532389343	
7.75227498042739	-0.019866943359375	3.39999999141583	35	0.00035096614737995	
7.85227498017491	-0.0198760986328125	3.49999999116335	36	-0.000289921008516103	
7.95227497992244	-0.019879150390625	3.59999999091087	37	7.11593238520436E-05	
8.05227497966996	-0.019866943359375	3.6999999906584	38	0.000228906894335523	
8.15227497941748	-0.019866943359375	3.79999999040592	39	-0.000152594249811955	
8.25227497916501	-0.019879150390625	3.89999999015345	40	-0.000183123032911681	
8.35227497891253	-0.0198638916015625	3.99999998990097	41	0.000422150304075331	
8.45227497866006	-0.0198638916015625	4.0999999896485	42	-0.000218724424485117	
8.55227497840758	-0.019866943359375	4.19999998939602	43	-5.07881713929237E-06	
8.65227497815511	-0.01986083984375	4.29999998914354	44	0.000147509214002639	
8.75227497790263	-0.0198577880859375	4.39999998889107	45	-2.54685928666731E-05	
8.85227497765015	-0.019842529296875	4.49999998863859	46	0.00026452069869265	
8.95227497739768	-0.0198577880859375	4.59999998838612	47	-0.000447587837697938	
9.0522749771452	-0.0198577880859375	4.69999998813364	48	0.000228888267884031	
9.15227497689273	-0.0198638916015625	4.79999998788117	49	-0.000162764292326756	
9.25227497664025	-0.019866943359375	4.89999998762869	50	1.52550783241168E-05	
9.35227497638778	-0.0198516845703125	4.99999998737621	51	0.000294999801553786	
9.4522749761353	-0.01986083984375	5.09999998712374	52	-0.000356026343069971	
9.55227497588282	-0.019854736328125	5.19999998687126	53	0.000269562267931178	
9.65227497563035	-0.0198699951171875	5.29999998661879	54	-0.000381445250241086	
9.75227497537787	-0.019854736328125	5.39999998636631	55	0.000478122849017382	
9.8522749751254	-0.0198455810546875	5.49999998611383	56	-6.10327297181357E-05	
9.95227497487292	-0.019842529296875	5.59999998586136	57	-3.72529385117559E-08	
10.0522749746204	-0.019854736328125	5.69999998560888	58	-0.000228819961193949	
10.152274974368	-0.01983642578125	5.79999998535641	59	0.000488255638629198	
10.2522749741155	-0.0198486328125	5.89999998510393	60	-0.000478122849017382	
10.352274973863	-0.019830322265625	5.99999998485146	61	0.000539161788765341	
10.4522749736105	-0.019842529296875	6.09999998459898	62	-0.000478153873700649	
10.5522749733581	-0.0198486328125	6.1999999843465	63	9.15801429073326E-05	
10.6522749731056	-0.019842529296875	6.29999998409403	64	0.000142399352625944	
10.7522749728531	-0.0198516845703125	6.39999998384155	65	-0.000259373569861054	
10.8522749726006	-0.0198455810546875	6.49999998358908	66	0.000239052111282945	
10.9522749723482	-0.0198486328125	6.5999999833366	67	-0.000157722737640142	
11.0522749720957	-0.019842529296875	6.69999998308413	68	0.000167861740919761	
11.1522749718432	-0.01983642578125	6.79999998283165	69	3.05411995213944E-05	
11.2522749715907	-0.0198394775390625	6.89999998257917	70	-0.00010680417472031	
11.3522749713383	-0.0198394775390625	6.9999999823267	71	5.5960121244425E-05	
11.4522749710858	-0.0198333740234375	7.09999998207422	72	0.000101700519735459	
11.5522749708333	-0.0198333740234375	7.19999998182175	73	-7.12152032065205E-05	
11.6522749705808	-0.019830322265625	7.29999998156927	74	7.63064381317236E-05	
11.7522749703284	-0.01983642578125	7.3999999813168	75	-0.000147534054121934	
11.8522749700759	-0.019818115234375	7.49999998106432	76	0.000417071481933817	
11.9522749698234	-0.0198455810546875	7.59999998081184	77	-0.000737490190658718	
12.0522749695709	-0.01983642578125	7.69999998055937	78	0.000549282180145383	
12.1522749693185	-0.019830322265625	7.79999998030689	79	-8.64392350194976E-05	
12.252274969066	-0.0198455810546875	7.89999998005442	80	-0.000320455990731716	
12.3522749688135	-0.019818115234375	7.99999997980194	81	0.000701870187185705	
12.452274968561	-0.01982421875	8.09999997954947	82	-0.000483151990920305	
12.5522749683086	-0.01983642578125	8.19999997929699	83	-6.10513598076068E-05	
12.6522749680561	-0.0198333740234375	8.29999997904451	84	0.000178006957867183	
12.7522749678036	-0.019830322265625	8.39999997879204	85	-2.03276867978275E-05	
12.8522749675511	-0.0198272705078125	8.49999997853956	86	3.04729037452489E-05	
12.9522749672986	-0.01982421875	8.59999997828709	87	3.05846624542028E-05	
13.0522749670462	-0.0198394775390625	8.69999997803461	88	-0.000305182271404192	
13.1522749667937	-0.0198150634765625	8.79999997778214	89	0.000635789707303047	
13.2522749665412	-0.0198272705078125	8.89999997752966	90	-0.000559526728466153	
13.3522749662887	-0.019818115234375	8.99999997727718	91	0.000391664972994477	
13.4522749660363	-0.01982421875	9.09999997702471	92	-0.000259385997196659	
13.5522749657838	-0.01982421875	9.19999997677223	93	0.000101731566246599	
13.6522749655313	-0.01982421875	9.29999997651976	94	-2.03276867978275E-05	
13.7522749652788	-0.01981201171875	9.39999997626728	95	0.000223778406507336	
13.8522749650264	-0.0198211669921875	9.49999997601481	96	-0.000310230039758608	
13.9522749647739	-0.019805908203125	9.59999997576233	97	0.000427229126216844	
14.0522749645214	-0.0198211669921875	9.69999997550985	98	-0.000488280464196578	
14.1522749642689	-0.019805908203125	9.79999997525738	99	0.000508626806549728	
14.2522749640165	-0.0198211669921875	9.8999999750049	100	-0.000508626806549728	
14.352274963764	-0.01981201171875	9.99999997475243	101	0.00039671896956861	
14.4522749635115	-0.019805908203125	10.0999999745	102	-4.5746608520858E-05	
14.552274963259	-0.019818115234375	10.1999999742475	103	-0.00026452069869265	
14.6522749630066	-0.0198089599609375	10.299999973995	104	0.000330638460582122	
14.7522749627541	-0.019818115234375	10.3999999737425	105	-0.00031538336770609	
14.8522749625016	-0.0198089599609375	10.49999997349	106	0.000305213325191289	
14.9522749622491	-0.0198150634765625	10.5999999732376	107	-0.000249234581133351	
15.0522749619967	-0.0198089599609375	10.6999999729851	108	0.000213620762224309	
15.1522749617442	-0.019805908203125	10.7999999727326	109	-3.56013915734366E-05	
15.2522749614917	-0.019805908203125	10.8999999724801	110	-1.52550783241168E-05	
15.3522749612392	-0.0198028564453125	10.9999999722277	111	6.60991281620227E-05	
15.4522749609868	-0.0198028564453125	11.0999999719752	112	-3.56138079951052E-05	
15.5522749607343	-0.0198089599609375	11.1999999717227	113	-0.000101700519735459	
15.6522749604818	-0.01981201171875	11.2999999714702	114	1.52364518726245E-05	
15.7522749602293	-0.0198028564453125	11.3999999712178	115	0.000183123032911681	
15.8522749599769	-0.0197998046875	11.4999999709653	116	-6.10327297181357E-05	
15.9522749597244	-0.0197998046875	11.5999999707128	117	-5.10986137669533E-06	
16.0522749594719	-0.0197967529296875	11.6999999704603	118	6.60991281620227E-05	
16.1522749592194	-0.0197998046875	11.7999999702079	119	-9.14994234335609E-05	
16.252274958967	-0.0197967529296875	11.8999999699554	120	0.000101669480500277	
16.3522749587145	-0.0197906494140625	11.9999999697029	121	6.6167427576147E-05	
16.452274958462	-0.019793701171875	12.0999999694504	122	-0.000116980438178871	
16.5522749582095	-0.019805908203125	12.199999969198	123	-0.000167855527251959	
16.652274957957	-0.0198028564453125	12.2999999689455	124	0.000188177014933899	
16.7522749577046	-0.019805908203125	12.399999968693	125	-0.00013223550922703	
16.8522749574521	-0.01978759765625	12.4999999684405	126	0.000381445250241086	
16.9522749571996	-0.0197998046875	12.5999999681881	127	-0.000447569211246446	
17.0522749569471	-0.0197967529296875	12.6999999679356	128	0.000259354943409562	
17.1522749566947	-0.0197906494140625	12.7999999676831	129	3.56510608980898E-05	
17.2522749564422	-0.019793701171875	12.8999999674306	130	-0.000116980438178871	
17.3522749561897	-0.019805908203125	12.9999999671782	131	-0.000167855527251959	
17.4522749559372	-0.019781494140625	13.0999999669257	132	0.000579829560592771	
17.5522749556848	-0.019793701171875	13.1999999666732	133	-0.000549269723705947	
17.6522749554323	-0.019781494140625	13.2999999664207	134	0.000447556813014671	
17.7522749551798	-0.0197998046875	13.3999999661683	135	-0.000518753367941827	
17.8522749549273	-0.01978759765625	13.4999999659158	136	0.000478042114991695	
17.9522749546749	-0.0197967529296875	13.5999999656633	137	-0.000371281406842172	
18.0522749544224	-0.01978759765625	13.6999999654108	138	0.000315352343022823	
18.1522749541699	-0.0197784423828125	13.7999999651583	139	3.05349931295495E-05	
18.2522749539174	-0.01978759765625	13.8999999649059	140	-0.00024417438544333	
18.352274953665	-0.019781494140625	13.9999999646534	141	0.000249234581133351	
18.4522749534125	-0.019781494140625	14.0999999644009	142	-0.000101712939795107	
18.55227495316	-0.019769287109375	14.1999999641484	143	0.000244168186327443	
18.6522749529075	-0.0197784423828125	14.299999963896	144	-0.000310285948216915	
18.7522749526551	-0.019781494140625	14.3999999636435	145	9.15490963961929E-05	
18.8522749524026	-0.019781494140625	14.499999963391	146	5.10986137669533E-06	
18.9522749521501	-0.0197784423828125	14.5999999631385	147	4.58086979051586E-05	
19.0522749518976	-0.019781494140625	14.6999999628861	148	-9.15863492991775E-05	
19.1522749516452	-0.0197723388671875	14.7999999626336	149	0.000213639388675801	
19.2522749513927	-0.0197845458984375	14.8999999623811	150	-0.000340777449309826	
19.3522749511402	-0.0197662353515625	14.9999999621286	151	0.000508583325427026	
19.4522749508877	-0.0197784423828125	15.0999999618762	152	-0.000478042114991695	
19.5522749506353	-0.0197784423828125	15.1999999616237	153	0.000203444506041706	
19.6522749503828	-0.019775390625	15.2999999613712	154	1.52550783241168E-05	
19.7522749501303	-0.0197723388671875	15.3999999611187	155	2.03276867978275E-05	
19.8522749498778	-0.0197723388671875	15.4999999608663	156	-2.54437563853571E-05	
19.9522749496253	-0.0197845458984375	15.5999999606138	157	-0.000213608349440619	
20.0522749493729	-0.0197784423828125	15.6999999603613	158	0.000254300975939259	
20.1522749491204	-0.0197723388671875	15.7999999601088	159	-1.24176464666448E-08	
20.2522749488679	-0.0197723388671875	15.8999999598564	160	-5.08688863192219E-05	
20.3522749486154	-0.0197723388671875	15.9999999596039	161	2.03276867978275E-05	
20.452274948363	-0.019769287109375	16.0999999593514	162	5.59663312742487E-05	
20.5522749481105	-0.019769287109375	16.1999999590989	163	-3.56262280547526E-05	
20.652274947858	-0.019769287109375	16.2999999588465	164	1.01700525192427E-05	
20.7522749476055	-0.019757080078125	16.399999958594	165	0.000223759780055843	
20.8522749473531	-0.0197601318359375	16.4999999583415	166	-0.000198340858332813	
20.9522749471006	-0.0197601318359375	16.599999958089	167	7.62878116802312E-05	
21.0522749468481	-0.019769287109375	16.6999999578366	168	-0.000178006957867183	
21.1522749465956	-0.0197662353515625	16.7999999575841	169	0.000162720840307884	
21.2522749463432	-0.0197723388671875	16.8999999573316	170	-0.000177994545083493	
21.3522749460907	-0.019769287109375	16.9999999570791	171	0.000137332957820036	
21.4522749458382	-0.019769287109375	17.0999999568267	172	-5.59725413040724E-05	
21.5522749455857	-0.0197601318359375	17.1999999565742	173	0.000178006957867183	
21.6522749453333	-0.0197540283203125	17.2999999563217	174	5.10986137669533E-06	
21.7522749450808	-0.0197662353515625	17.3999999560692	175	-0.000264526897808537	
21.8522749448283	-0.0197479248046875	17.4999999558167	176	0.000498518813401461	
21.9522749445758	-0.0197509765625	17.5999999555643	177	-0.00031029834644869	
22.0522749443234	-0.01976318359375	17.6999999553118	178	-0.000127100822282955	
22.1522749440709	-0.01976318359375	17.7999999550593	179	0.00013223550922703	
22.2522749438184	-0.01976318359375	17.8999999548068	180	-4.06740000471473E-05	
22.3522749435659	-0.019744873046875	17.9999999545544	181	0.000335686228936538	
22.4522749433135	-0.019757080078125	18.0999999543019	182	-0.000437436421634629	
22.552274943061	-0.019775390625	18.1999999540494	183	-0.00013223550922703	
22.6522749428085	-0.0197540283203125	18.2999999537969	184	0.000564580725040287	
22.752274942556	-0.01973876953125	18.3999999535445	185	-3.05349931295495E-05	
22.8522749423036	-0.0197509765625	18.499999953292	186	-0.000330632261466235	
22.9522749420511	-0.019769287109375	18.5999999530395	187	-0.000142362099722959	
23.0522749417986	-0.0197540283203125	18.699999952787	188	0.000452641834272072	
23.1522749415461	-0.019757080078125	18.7999999525346	189	-0.00029503705445677	
23.2522749412936	-0.0197479248046875	18.8999999522821	190	0.000254356855293736	
23.3522749410412	-0.0197540283203125	18.9999999520296	191	-0.000228888267884031	
23.4522749407887	-0.019744873046875	19.0999999517771	192	0.000269549840595573	
23.5522749405362	-0.0197509765625	19.1999999515247	193	-0.000239052111282945	
23.6522749402837	-0.019744873046875	19.2999999512722	194	0.000213651816011406	
23.7522749400313	-0.019732666015625	19.3999999510197	195	0.000132247936562635	
23.8522749397788	-0.01973876953125	19.4999999507672	196	-0.000233967075473629	
23.9522749395263	-0.0197509765625	19.5999999505148	197	-0.000111932662548497	
24.0522749392738	-0.01973876953125	19.6999999502623	198	0.000345918379025534	
24.1522749390214	-0.01973876953125	19.7999999500098	199	-0.000183141659363173	
24.2522749387689	-0.0197479248046875	19.8999999497573	200	-0.000127150487969629	
24.3522749385164	-0.0197357177734375	19.9999999495049	201	0.000330601207679138	
24.4522749382639	-0.0197265625	20.0999999492524	202	-5.07260847371072E-06	
24.5522749380115	-0.019732666015625	20.1999999489999	203	-0.000178006957867183	
24.652274937759	-0.0197357177734375	20.2999999487474	204	4.57528185506817E-05	
24.7522749375065	-0.019732666015625	20.399999948495	205	7.12648688931949E-05	
24.852274937254	-0.0197296142578125	20.4999999482425	206	1.01452169474214E-05	
24.9522749370016	-0.01973876953125	20.59999994799	207	-0.0001932620361913	
25.0522749367491	-0.0197357177734375	20.6999999477375	208	0.000172890882822685	
25.1522749364966	-0.0197296142578125	20.799999947485	209	4.58211143268272E-05	
25.2522749362441	-0.019732666015625	20.8999999472326	210	-0.000116980438178871	
25.3522749359917	-0.01973876953125	20.9999999469801	211	-5.59477048227564E-05	
25.4522749357392	-0.0197357177734375	21.0999999467276	212	0.000116949391667731	
25.5522749354867	-0.01973876953125	21.1999999464751	213	-0.000111845736682881	
25.6522749352342	-0.0197418212890625	21.2999999462227	214	-1.0238349204883E-05	
25.7522749349818	-0.0197265625	21.3999999459702	215	0.000305182271404192	
25.8522749347293	-0.0197296142578125	21.4999999457177	216	-0.000244137132540345	
25.9522749344768	-0.0197357177734375	21.5999999454652	217	-2.54437563853571E-05	
26.0522749342243	-0.019732666015625	21.6999999452128	218	0.000117036317533348	
26.1522749339719	-0.0197296142578125	21.7999999449603	219	-2.48352929332896E-08	
26.2522749337194	-0.0197235107421875	21.8999999447078	220	8.64826943143271E-05	
26.3522749334669	-0.0197296142578125	21.9999999444553	221	-0.000172965388628654	
26.4522749332144	-0.0197296142578125	22.0999999442029	222	9.15677228476852E-05	
26.552274932962	-0.019720458984375	22.1999999439504	223	0.000147490587551147	
26.6522749327095	-0.0197235107421875	22.2999999436979	224	-0.000162720840307884	
26.752274932457	-0.0197418212890625	22.3999999434454	225	-0.000269636773737147	
26.8522749322045	-0.0197296142578125	22.499999943193	226	0.000427272578235716	
26.952274931952	-0.019720458984375	22.5999999429405	227	-3.56200180249289E-05	
27.0522749316996	-0.0197265625	22.699999942688	228	-0.000178006957867183	
27.1522749314471	-0.01973876953125	22.7999999424355	229	-0.000122065459436271	
27.2522749311946	-0.0197235107421875	22.8999999421831	230	0.000401791563490406	
27.3522749309421	-0.0197235107421875	22.9999999419306	231	-0.000218711997149512	
27.4522749306897	-0.019720458984375	23.0999999416781	232	0.000106785548268817	
27.5522749304372	-0.0197265625	23.1999999414256	233	-0.000147478174767457	
27.6522749301847	-0.019708251953125	23.2999999411732	234	0.000417077681049705	
27.7522749299322	-0.01971435546875	23.3999999409207	235	-0.000345899752574041	
27.8522749296798	-0.019708251953125	23.4999999406682	236	0.000244168186327443	
27.9522749294273	-0.01971435546875	23.5999999404157	237	-0.00020348175894469	
28.0522749291748	-0.0197113037109375	23.6999999401633	238	0.000147496801218949	
28.1522749289223	-0.0197174072265625	23.7999999399108	239	-0.000167818274348974	
28.2522749286699	-0.01971435546875	23.8999999396583	240	0.000137314331368543	
28.3522749284174	-0.0197052001953125	23.9999999394058	241	0.000111895409645513	
28.4522749281649	-0.019708251953125	24.0999999391533	242	-0.000152550783241168	
28.5522749279124	-0.0197174072265625	24.1999999389009	243	-0.000101750192698091	
28.65227492766	-0.0197174072265625	24.2999999386484	244	9.66651641647331E-05	
28.7522749274075	-0.019720458984375	24.3999999383959	245	-8.64826943143271E-05	
28.852274927155	-0.0197174072265625	24.4999999381434	246	9.16049757506698E-05	
28.9522749269025	-0.0197113037109375	24.599999937891	247	6.60742953186855E-05	
29.0522749266501	-0.01971435546875	24.6999999376385	248	-0.000116968018119223	
29.1522749263976	-0.0196990966796875	24.799999937386	249	0.000335686228936538	
29.2522749261451	-0.0197021484375	24.8999999371335	250	-0.000244118506088853	
29.3522749258926	-0.0197113037109375	24.9999999368811	251	-8.14100858406164E-05	
29.4522749256402	-0.0196990966796875	25.0999999366286	252	0.000320449791615829	
29.5522749253877	-0.0197113037109375	25.1999999363761	253	-0.000396756222471595	
29.6522749251352	-0.019708251953125	25.2999999361236	254	0.000239076936850324	
29.7522749248827	-0.0196929931640625	25.3999999358712	255	0.000203425879590213	
29.8522749246303	-0.0196929931640625	25.4999999356187	256	-0.000167849328136072	
29.9522749243778	-0.0197021484375	25.5999999353662	257	-0.000116980438178871	
30.0522749241253	-0.0196990966796875	25.6999999351137	258	0.000162764292326756	
30.1522749238728	-0.019677734375	25.7999999348613	259	0.000325534812873229	
30.2522749236203	-0.0196929931640625	25.8999999346088	260	-0.000518821703735739	
30.3522749233679	-0.019708251953125	25.9999999343563	261	-3.05225730699021E-05	
30.4522749231154	-0.0196929931640625	26.0999999341038	262	0.000406895211199299	
30.5522749228629	-0.0196990966796875	26.1999999338514	263	-0.000340796104865149	
30.6522749226104	-0.01971435546875	26.2999999335989	264	-0.000157660644617863	
30.752274922358	-0.019696044921875	26.3999999333464	265	0.000493346888106316	
30.8522749221055	-0.0196929931640625	26.4999999330939	266	-0.000208517114515416	
30.952274921853	-0.0196929931640625	26.5999999328415	267	2.54065034823725E-05	
31.0522749216005	-0.0196868896484375	26.699999932589	268	0.000122077879495919	
31.1522749213481	-0.019683837890625	26.7999999323365	269	-1.52550783241168E-05	
31.2522749210956	-0.0196929931640625	26.899999932084	270	-0.000183091979124583	
31.3522749208431	-0.0196807861328125	26.9999999318316	271	0.000340727798175067	
31.4522749205906	-0.0197021484375	27.0999999315791	272	-0.000564531015697867	
31.5522749203382	-0.019683837890625	27.1999999313266	273	0.000625594810117036	
31.6522749200857	-0.0196868896484375	27.2999999310741	274	-0.000340752623742446	
31.7522749198332	-0.019671630859375	27.3999999308217	275	0.000376391282770783	
31.8522749195807	-0.0196807861328125	27.4999999305692	276	-0.000356063595972955	
31.9522749193283	-0.0196929931640625	27.5999999303167	277	-6.60991281620227E-05	
32.0522749190758	-0.019683837890625	27.6999999300642	278	0.0002797074848786	
32.1522749188233	-0.0196685791015625	27.7999999298117	279	0.000132260349346325	
32.2522749185708	-0.0196929931640625	27.8999999295593	280	-0.000595084624364972	
32.3522749183184	-0.01968994140625	27.9999999293068	281	0.000391602894524112	
32.4522749180659	-0.019671630859375	28.0999999290543	282	0.000218774090171792	
32.5522749178134	-0.01968994140625	28.1999999288018	283	-0.000539180415216833	
32.6522749175609	-0.019683837890625	28.2999999285494	284	0.000386592379072681	
32.7522749173085	-0.019677734375	28.3999999282969	285	-2.03525214601541E-05	
32.852274917056	-0.0196868896484375	28.4999999280444	286	-0.000218718210817315	
32.9522749168035	-0.019677734375	28.5999999277919	287	0.000295018428005278	
33.052274916551	-0.019683837890625	28.6999999275395	288	-0.000249253207584843	
33.1522749162986	-0.0196807861328125	28.799999927287	289	0.000157666858285666	
33.2522749160461	-0.0196746826171875	28.8999999270345	290	5.59477048227564E-05	
33.3522749157936	-0.01966552734375	28.999999926782	291	0.000106816594779957	
33.4522749155411	-0.019671630859375	29.0999999265296	292	-0.0001983470574487	
33.5522749152886	-0.0196807861328125	29.1999999262771	293	-6.61550075164996E-05	
33.6522749150362	-0.0196685791015625	29.2999999260246	294	0.000310279719997197	
33.7522749147837	-0.0196746826171875	29.3999999257721	295	-0.000284848385490477	
33.8522749145312	-0.0196624755859375	29.4999999255197	296	0.000335735909175128	
33.9522749142787	-0.019671630859375	29.5999999252672	297	-0.000330632261466235	
34.0522749140263	-0.0196868896484375	29.6999999250147	298	-0.000132216882775538	
34.1522749137738	-0.01966552734375	29.7999999247622	299	0.000539118307642639	
34.2522749135213	-0.0196685791015625	29.8999999245098	300	-0.000356026343069971	
34.3522749132688	-0.0196746826171875	29.9999999242573	301	-5.10365271111368E-06	
34.4522749130164	-0.0196685791015625	30.0999999240048	302	0.000172965388628654	
34.5522749127639	-0.0196685791015625	30.1999999237523	303	-9.15677228476852E-05	
34.6522749125114	-0.0196624755859375	30.2999999234999	304	0.000132254135678522	
34.7522749122589	-0.0196563720703125	30.3999999232474	305	4.0680210076971E-05	
34.8522749120065	-0.01966552734375	30.4999999229949	306	-0.000218724424485117	
34.952274911754	-0.01966552734375	30.5999999227424	307	0.000127150487969629	
35.0522749115015	-0.0196624755859375	30.69999992249	308	2.54437563853571E-05	
35.152274911249	-0.019659423828125	30.7999999222375	309	2.03028521355009E-05	
35.2522749109966	-0.019671630859375	30.899999921985	310	-0.000249160075327381	
35.3522749107441	-0.019659423828125	30.9999999217325	311	0.00037634780164808	
35.4522749104916	-0.0196624755859375	31.09999992148	312	-0.000239008644712158	
35.5522749102391	-0.019659423828125	31.1999999212276	313	0.000132185843540356	
35.6522749099867	-0.0196533203125	31.2999999209751	314	6.6167427576147E-05	
35.7522749097342	-0.019647216796875	31.3999999207226	315	5.08564698975533E-05	
35.8522749094817	-0.0196563720703125	31.4999999204701	316	-0.000218718210817315	
35.9522749092292	-0.0196502685546875	31.5999999202177	317	0.00023903968394734	
36.0522749089768	-0.019635009765625	31.6999999199652	318	0.000178013171534985	
36.1522749087243	-0.0196502685546875	31.7999999197127	319	-0.000437436421634629	
36.2522749084718	-0.01964111328125	31.8999999194602	320	0.000396756222471595	
36.3522749082193	-0.019647216796875	31.9999999192078	321	-0.000269574695266783	
36.4522749079669	-0.01964111328125	32.0999999189553	322	0.000213620762224309	
36.5522749077144	-0.0196441650390625	32.1999999187028	323	-0.000147509214002639	
36.6522749074619	-0.0196502685546875	32.2999999184503	324	-5.59352884010877E-05	
36.7522749072094	-0.019647216796875	32.3999999181979	325	0.000116986644570716	
36.852274906957	-0.019659423828125	32.4999999179454	326	-0.000279788189800456	
36.9522749067045	-0.01964111328125	32.5999999176929	327	0.00048834877088666	
37.052274906452	-0.019635009765625	32.6999999174404	328	-0.000142461445648223	
37.1522749061995	-0.0196441650390625	32.799999917188	329	-0.000178013171534985	
37.252274905947	-0.01962890625	32.8999999169355	330	0.000406913837650791	
37.3522749056946	-0.0196533203125	32.999999916683	331	-0.000656111165881157	
37.4522749054421	-0.019647216796875	33.0999999164305	332	0.000447587837697938	
37.5522749051896	-0.0196533203125	33.1999999161781	333	-0.000264514499576762	
37.6522749049371	-0.0196380615234375	33.2999999159256	334	0.000371312460629269	
37.7522749046847	-0.0196441650390625	33.3999999156731	335	-0.00031027352088131	
37.8522749044322	-0.01964111328125	33.4999999154206	336	0.000178069050889462	
37.9522749041797	-0.0196380615234375	33.5999999151682	337	-2.48352929332896E-08	
38.0522749039272	-0.0196380615234375	33.6999999149157	338	-2.54251299338648E-05	
38.1522749036748	-0.0196502685546875	33.7999999146632	339	-0.000213645602343604	
38.2522749034223	-0.01964111328125	33.8999999144107	340	0.000310292147332802	
38.3522749031698	-0.0196258544921875	33.9999999141583	341	0.000132247936562635	
38.4522749029173	-0.019647216796875	34.0999999139058	342	-0.000539136934094131	
38.5522749026649	-0.0196441650390625	34.1999999136533	343	0.000356001488398761	
38.6522749024124	-0.019622802734375	34.2999999134008	344	0.000284873211057857	
38.7522749021599	-0.019635009765625	34.3999999131483	345	-0.000462886382592842	
38.8522749019074	-0.019635009765625	34.4999999128959	346	0.000213614563108422	
38.952274901655	-0.0196380615234375	34.5999999126434	347	-9.6634124929551E-05	
39.0522749014025	-0.01964111328125	34.6999999123909	348	-2.03276867978275E-05	
39.15227490115	-0.0196258544921875	34.7999999121384	349	0.00030518849962391	
39.2522749008975	-0.019622802734375	34.899999911886	350	-0.000132247936562635	
39.3522749006451	-0.01962890625	34.9999999116335	351	-9.66465377132408E-05	
39.4522749003926	-0.0196380615234375	35.099999911381	352	-8.64392350194976E-05	
39.5522749001401	-0.019622802734375	35.1999999111285	353	0.000366196385584772	
39.6522748998876	-0.0196319580078125	35.2999999108761	354	-0.00037637265631929	
39.7522748996352	-0.0196197509765625	35.3999999106236	355	0.000381420424673706	
39.8522748993827	-0.01964111328125	35.4999999103711	356	-0.000564531015697867	
39.9522748991302	-0.019635009765625	35.5999999101186	357	0.000401779136154801	
40.0522748988777	-0.0196319580078125	35.6999999098662	358	-8.64392350194976E-05	
40.1522748986253	-0.0196197509765625	35.7999999096137	359	0.000208479861612432	
40.2522748983728	-0.01961669921875	35.8999999093612	360	-7.62567651690915E-05	
40.3522748981203	-0.01962890625	35.9999999091087	361	-0.000218755463720299	
40.4522748978678	-0.01961669921875	36.0999999088563	362	0.000376440933905542	
40.5522748976153	-0.0196197509765625	36.1999999086038	363	-0.000239120403421111	
40.6522748973629	-0.019622802734375	36.2999999083513	364	2.03711479116464E-05	
40.7522748971104	-0.019622802734375	36.3999999080988	365	2.54251299338648E-05	
40.8522748968579	-0.01961669921875	36.4999999078464	366	0.000101737772638444	
40.9522748966054	-0.0196075439453125	36.5999999075939	367	9.66092848102562E-05	
41.052274896353	-0.0196136474609375	36.6999999073414	368	-0.000198359484784305	
41.1522748961005	-0.019622802734375	36.7999999070889	369	-6.60929217701778E-05	
41.252274895848	-0.01961669921875	36.8999999068365	370	0.000198359484784305	
41.3522748955955	-0.019622802734375	36.999999906584	371	-0.000213651816011406	
41.4522748953431	-0.0196075439453125	37.0999999063315	372	0.000371312460629269	
41.5522748950906	-0.019622802734375	37.199999906079	373	-0.000478110421681777	
41.6522748948381	-0.019610595703125	37.2999999058266	374	0.000452697713626549	
41.7522748945856	-0.01961669921875	37.3999999055741	375	-0.000305176072288305	
41.8522748943332	-0.0196075439453125	37.4999999053216	376	0.000279719883110374	
41.9522748940807	-0.0196075439453125	37.5999999050691	377	-0.000127144274301827	
42.0522748938282	-0.0196075439453125	37.6999999048167	378	3.05163648590678E-05	
42.1522748935757	-0.0196136474609375	37.7999999045642	379	-0.00011190782970516	
42.2522748933233	-0.0196014404296875	37.8999999043117	380	0.000295043282676488	
42.3522748930708	-0.0196075439453125	37.9999999040592	381	-0.000274703168543056	
42.4522748928183	-0.0196044921875	38.0999999038067	382	0.000167843114468269	
42.5522748925658	-0.0195953369140625	38.1999999035543	383	0.000111926456156652	
42.6522748923134	-0.0196044921875	38.2999999033018	384	-0.00026452069869265	
42.7522748920609	-0.0196075439453125	38.3999999030493	385	8.13976730569266E-05	
42.8522748918084	-0.0196136474609375	38.4999999027968	386	-0.000106829007563647	
42.9522748915559	-0.0196014404296875	38.5999999025444	387	0.000284873211057857	
43.0522748913035	-0.0195953369140625	38.6999999022919	388	-5.08875127707142E-05	
43.152274891051	-0.01961669921875	38.7999999020394	389	-0.000422144075855613	
43.2522748907985	-0.0196044921875	38.8999999017869	390	0.000493322033435106	
43.352274890546	-0.0196014404296875	38.9999999015345	391	-0.000157642018166371	
43.4522748902936	-0.019598388671875	39.099999901282	392	6.09892704233062E-05	
43.5522748900411	-0.01959228515625	39.1999999010295	393	8.65137408254668E-05	
43.6522748897886	-0.0196014404296875	39.299999900777	394	-0.000228888267884031	
43.7522748895361	-0.0196014404296875	39.3999999005246	395	0.00012713807518594	
43.8522748892836	-0.019598388671875	39.4999999002721	396	2.54065034823725E-05	
43.9522748890312	-0.019598388671875	39.5999999000196	397	-3.55703487002756E-05	
44.0522748887787	-0.0195953369140625	39.6999998997671	398	6.61550075164996E-05	
44.1522748885262	-0.0196014404296875	39.7999998995147	399	-0.000147515427670442	
44.2522748882737	-0.0195892333984375	39.8999998992622	400	0.000305132620269433	
44.3522748880213	-0.0196075439453125	39.9999998990097	401	-0.000498431909363717	
44.4522748877688	-0.0196044921875	40.0999998987572	402	0.000310236267978325	
44.5522748875163	-0.019598388671875	40.1999998985048	403	1.52612865349511E-05	
44.6522748872638	-0.01959228515625	40.2999998982523	404	5.08875127707142E-05	
44.7522748870114	-0.0196014404296875	40.3999998979998	405	-0.000218711997149512	
44.8522748867589	-0.019598388671875	40.4999998977473	406	0.000183067153557204	
44.9522748865064	-0.0195953369140625	40.5999998974949	407	-1.01079640444368E-05	
45.0522748862539	-0.01959228515625	40.6999998972424	408	3.04915301967412E-05	
45.1522748860015	-0.01959228515625	40.7999998969899	409	-2.54251299338648E-05	
45.252274885749	-0.0196014404296875	40.8999998967374	410	-0.000157666858285666	
45.3522748854965	-0.019586181640625	40.999999896485	411	0.000386536499718204	
45.452274885244	-0.0196014404296875	41.0999998962325	412	-0.000488286663312465	
45.5522748849916	-0.0195892333984375	41.19999989598	413	0.000452641834272072	
45.6522748847391	-0.0195953369140625	41.2999998957275	414	-0.000305132620269433	
45.7522748844866	-0.0195892333984375	41.399999895475	415	0.000223759780055843	
45.8522748842341	-0.0195953369140625	41.4999998952226	416	-0.000203413466806524	
45.9522748839817	-0.0195831298828125	41.5999998949701	417	0.000315321289235726	
46.0522748837292	-0.0195892333984375	41.6999998947176	418	-0.000274641090072691	
46.1522748834767	-0.019580078125	41.7999998944651	419	0.000279757165117189	
46.2522748832242	-0.019586181640625	41.8999998942127	420	-0.000239058310398832	
46.3522748829718	-0.0195770263671875	41.9999998939602	421	0.000269549840595573	
46.4522748827193	-0.019598388671875	42.0999998937077	422	-0.000518796849064529	
46.5522748824668	-0.0195892333984375	42.1999998934552	423	0.000447600265033543	
46.6522748822143	-0.0195770263671875	42.2999998932028	424	4.5771445002174E-05	
46.7522748819619	-0.019580078125	42.3999998929503	425	-0.000167830701684579	
46.8522748817094	-0.01959228515625	42.4999998926978	426	-0.000147509214002639	
46.9522748814569	-0.019586181640625	42.5999998924453	427	0.000244155758991838	
47.0522748812044	-0.019580078125	42.6999998921929	428	-1.24176464666448E-08	
47.152274880952	-0.01959228515625	42.7999998919404	429	-0.000274653488304466	
47.2522748806995	-0.019573974609375	42.8999998916879	430	0.000498438079375774	
47.352274880447	-0.0195770263671875	42.9999998914354	431	-0.000310254894429818	
47.4522748801945	-0.0195770263671875	43.099999891183	432	9.6634124929551E-05	
47.552274879942	-0.0195831298828125	43.1999998909305	433	-0.000122077879495919	
47.6522748796896	-0.0195831298828125	43.299999890678	434	7.12276159902103E-05	
47.7522748794371	-0.019580078125	43.3999998904255	435	3.56386444764212E-05	
47.8522748791846	-0.019573974609375	43.4999998901731	436	7.62505587772466E-05	
47.9522748789321	-0.0195831298828125	43.5999998899206	437	-0.000228875840548426	
48.0522748786797	-0.019573974609375	43.6999998896681	438	0.000295006029773504	
48.1522748784272	-0.0195770263671875	43.7999998894156	439	-0.000193280662642792	
48.2522748781747	-0.0195709228515625	43.8999998891632	440	0.000178025584318675	
48.3522748779222	-0.0195587158203125	43.9999998889107	441	0.000142368313390762	
48.4522748776698	-0.0195709228515625	44.0999998886582	442	-0.00034583144588396	
48.5522748774173	-0.01956787109375	44.1999998884057	443	0.000239008644712158	
48.6522748771648	-0.0195770263671875	44.2999998881533	444	-0.000244093665969558	
48.7522748769123	-0.019573974609375	44.3999998879008	445	0.000172897096490487	
48.8522748766599	-0.0195709228515625	44.4999998876483	446	-1.01514260677504E-05	
48.9522748764074	-0.01956787109375	44.5999998873958	447	3.04729037452489E-05	
49.0522748761549	-0.0195587158203125	44.6999998871433	448	0.000142442819196731	
49.1522748759024	-0.019561767578125	44.7999998868909	449	-0.000152594249811955	
49.25227487565	-0.01956787109375	44.8999998866384	450	-4.57900714536663E-05	
49.3522748753975	-0.0195709228515625	44.9999998863859	451	5.12848782818764E-06	
49.452274875145	-0.0195648193359375	45.0999998861334	452	0.000127131861518137	
49.5522748748925	-0.019561767578125	45.199999885881	453	-2.54251299338648E-05	
49.6522748746401	-0.0195648193359375	45.2999998856285	454	-7.11841566953808E-05	
49.7522748743876	-0.019561767578125	45.399999885376	455	0.000101712939795107	
49.8522748741351	-0.0195556640625	45.4999998851235	456	6.61363810650073E-05	
49.9522748738826	-0.0195709228515625	45.5999998848711	457	-0.000340802303981036	
50.0522748736302	-0.0195648193359375	45.6999998846186	458	0.000310267321765423	
50.1522748733777	-0.0195587158203125	45.7999998843661	459	-1.01886789707351E-05	
50.2522748731252	-0.0195526123046875	45.8999998841136	460	6.10389397479594E-05	
50.3522748728727	-0.0195526123046875	45.9999998838612	461	-5.08502598677296E-05	
50.4522748726203	-0.01956787109375	46.0999998836087	462	-0.000259392196312547	
50.5522748723678	-0.0195587158203125	46.1999998833562	463	0.000345862499671057	
50.6522748721153	-0.0195556640625	46.2999998831037	464	-0.000101719146186952	
50.7522748718628	-0.019573974609375	46.3999998828513	465	-0.000340833357768133	
50.8522748716103	-0.0195556640625	46.4999998825988	466	0.000559526728466153	
50.9522748713579	-0.0195587158203125	46.5999998823463	467	-0.000330663286149502	
51.0522748711054	-0.01954345703125	46.6999998820938	468	0.000376391282770783	
51.1522748708529	-0.0195587158203125	46.7999998818414	469	-0.00046795277739875	
51.2522748706004	-0.01954345703125	46.8999998815889	470	0.000508614350110292	
51.352274870348	-0.0195648193359375	46.9999998813364	471	-0.0006204973324202	
51.4522748700955	-0.019549560546875	47.0999998810839	472	0.000579842017032206	
51.552274869843	-0.0195465087890625	47.1999998808315	473	-0.000193280662642792	
51.6522748695905	-0.0195556640625	47.299999880579	474	-0.000152575623360462	
51.7522748693381	-0.0195587158203125	47.3999998803265	475	6.09830603934824E-05	
51.8522748690856	-0.01954345703125	47.499999880074	476	0.000284835958154872	
51.9522748688331	-0.0195465087890625	47.5999998798216	477	-0.000244137132540345	
52.0522748685806	-0.0195404052734375	47.6999998795691	478	0.000198371897567995	
52.1522748683282	-0.0195343017578125	47.7999998793166	479	3.05101566482335E-05	
52.2522748680757	-0.0195404052734375	47.8999998790641	480	-0.000162745665875264	
52.3522748678232	-0.01954345703125	47.9999998788117	481	3.55579286406282E-05	
52.4522748675707	-0.01954345703125	48.0999998785592	482	1.52612865349511E-05	
52.5522748673183	-0.0195465087890625	48.1999998783067	483	-6.6117754613515E-05	
52.6522748670658	-0.0195465087890625	48.2999998780542	484	3.56013915734366E-05	
52.7522748668133	-0.0195404052734375	48.3999998778017	485	0.000101737772638444	
52.8522748665608	-0.01953125	48.4999998775493	486	9.66092848102562E-05	
52.9522748663084	-0.01953125	48.5999998772968	487	-8.6451655079145E-05	
53.0522748660559	-0.0195404052734375	48.6999998770443	488	-0.000137320545036346	
53.1522748658034	-0.019537353515625	48.7999998767918	489	0.000162720840307884	
53.2522748655509	-0.019525146484375	48.8999998765394	490	0.00015772893675603	
53.3522748652985	-0.01954345703125	48.9999998762869	491	-0.00046800245763734	
53.452274865046	-0.0195404052734375	49.0999998760344	492	0.00031029834644869	
53.5522748647935	-0.01953125	49.1999998757819	493	7.11717366357334E-05	
53.652274864541	-0.01951904296875	49.2999998755295	494	0.000127193954540417	
53.7522748642886	-0.0195281982421875	49.399999875277	495	-0.000279775791568682	
53.8522748640361	-0.0195404052734375	49.4999998750245	496	-7.62691852287389E-05	
53.9522748637836	-0.019525146484375	49.599999874772	497	0.000391615292755887	
54.0522748635311	-0.019525146484375	49.6999998745196	498	-0.000218711997149512	
54.1522748632786	-0.0195281982421875	49.7999998742671	499	-5.12227916260599E-06	
54.2522748630262	-0.019525146484375	49.8999998740146	500	9.15863492991775E-05	
54.3522748627737	-0.019525146484375	49.9999998737621	501	-4.58024878753349E-05	
54.4522748625212	-0.0195159912109375	50.0999998735097	502	0.000178006957867183	
54.5522748622687	-0.0195404052734375	50.1999998732572	503	-0.000554379599634558	
54.6522748620163	-0.0195220947265625	50.2999998730047	504	0.000651001289952546	
54.7522748617638	-0.0195159912109375	50.3999998727522	505	-0.000183060939889401	
54.8522748615113	-0.01951904296875	50.4999998724998	506	-6.6117754613515E-05	
54.9522748612588	-0.01953125	50.5999998722473	507	-0.000167855527251959	
55.0522748610064	-0.0195220947265625	50.6999998719948	508	0.000300084822811186	
55.1522748607539	-0.019525146484375	50.7999998717423	509	-0.000203413466806524	
55.2522748605014	-0.0195098876953125	50.8999998714899	510	0.00034583144588396	
55.3522748602489	-0.0195098876953125	50.9999998712374	511	-0.000188195641385391	
55.4522748599965	-0.0195159912109375	51.0999998709849	512	-6.10513598076068E-05	
55.552274859744	-0.0195281982421875	51.1999998707324	513	-0.000152594249811955	
55.6522748594915	-0.0195159912109375	51.29999987048	514	0.000345874897902831	
55.752274859239	-0.0195281982421875	51.3999998702275	515	-0.000406926264986396	
55.8522748589866	-0.019512939453125	51.499999869975	516	0.00046284293057397	
55.9522748587341	-0.0195220947265625	51.5999998697225	517	-0.000386561325285584	
56.0522748584816	-0.0195159912109375	51.69999986947	518	0.000269599520834163	
56.1522748582291	-0.0195159912109375	51.7999998692176	519	-0.000101737772638444	
56.2522748579767	-0.0195068359375	51.8999998689651	520	0.000188183214049786	
56.3522748577242	-0.019512939453125	51.9999998687126	521	-0.000218699584365822	
56.4522748574717	-0.019512939453125	52.0999998684601	522	0.000101700519735459	
56.5522748572192	-0.0195098876953125	52.1999998682077	523	3.56200180249289E-05	
56.6522748569668	-0.01951904296875	52.2999998679552	524	-0.000203463132493198	
56.7522748567143	-0.019512939453125	52.3999998677027	525	0.000228869641432539	
56.8522748564618	-0.01951904296875	52.4999998674502	526	-0.000213589722989127	
56.9522748562093	-0.019512939453125	52.5999998671978	527	0.000203413466806524	
57.0522748559569	-0.019512939453125	52.6999998669453	528	-9.15553027880378E-05	
57.1522748557044	-0.0194915771484375	52.7999998666928	529	0.000411980232456699	
57.2522748554519	-0.0195037841796875	52.8999998664403	530	-0.000472975720185786	
57.3522748551994	-0.0195037841796875	52.9999998661879	531	0.000213620762224309	
57.452274854947	-0.01949462890625	53.0999998659354	532	0.000127162900753319	
57.5522748546945	-0.0194915771484375	53.1999998656829	533	-5.08999328303616E-05	
57.652274854442	-0.0195037841796875	53.2999998654304	534	-0.000228819961193949	
57.7522748541895	-0.01949462890625	53.399999865178	535	0.000320418737828732	
57.852274853937	-0.019500732421875	53.4999998649255	536	-0.000259423250099644	
57.9522748536846	-0.0194976806640625	53.599999864673	537	0.000157666858285666	
58.0522748534321	-0.019500732421875	53.6999998644205	538	-0.000111889203253668	
58.1522748531796	-0.0195068359375	53.7999998641681	539	-6.61363810650073E-05	
58.2522748529271	-0.01949462890625	53.8999998639156	540	0.000284873211057857	
58.3522748526747	-0.0194976806640625	53.9999998636631	541	-0.000218774090171792	
58.4522748524222	-0.0195068359375	54.0999998634106	542	-9.15366763365455E-05	
58.5522748521697	-0.01949462890625	54.1999998631582	543	0.000320468418067321	
58.6522748519172	-0.0194976806640625	54.2999998629057	544	-0.000228944147238508	
58.7522748516648	-0.0195037841796875	54.3999998626532	545	-3.55579286406282E-05	
58.8522748514123	-0.019482421875	54.4999998624007	546	0.000452641834272072	
58.9522748511598	-0.0194915771484375	54.5999998621483	547	-0.00043741159606725	
59.0522748509073	-0.0194854736328125	54.6999998618958	548	0.000289939634967595	
59.1522748506549	-0.0194976806640625	54.7999998616433	549	-0.000325553439324722	
59.2522748504024	-0.0194976806640625	54.8999998613908	550	0.000162751879543066	
59.3522748501499	-0.019482421875	54.9999998611383	551	0.00023903968394734	
59.4522748498974	-0.0194915771484375	55.0999998608859	552	-0.000345868698786944	
59.552274849645	-0.0194793701171875	55.1999998606334	553	0.000381507357815281	
59.6522748493925	-0.0194976806640625	55.2999998603809	554	-0.000508688855916262	
59.75227484914	-0.019476318359375	55.3999998601284	555	0.000645972148049623	
59.8522748488875	-0.0194854736328125	55.499999859876	556	-0.000478085596114397	
59.9522748486351	-0.0194854736328125	55.5999998596235	557	0.000178006957867183	
60.0522748483826	-0.0194793701171875	55.699999859371	558	8.13914593891241E-05	
60.1522748481301	-0.0194854736328125	55.7999998591185	559	-0.00018313544569537	
60.2522748478776	-0.0194915771484375	55.8999998588661	560	-2.03401050384855E-05	
60.3522748476252	-0.0194732666015625	55.9999998586136	561	0.000386604777304456	
60.4522748473727	-0.0194610595703125	56.0999998583611	562	-1.02073054222274E-05	
60.5522748471202	-0.019476318359375	56.1999998581086	563	-0.000361098936991766	
60.6522748468677	-0.0194793701171875	56.2999998578562	564	0.000162782918778248	
60.7522748466153	-0.01947021484375	56.3999998576037	565	0.000152544569573365	
60.8522748463628	-0.0194793701171875	56.4999998573512	566	-0.000284804933471605	
60.9522748461103	-0.0194732666015625	56.5999998570987	567	0.000249215954681858	
61.0522748458578	-0.0194732666015625	56.6999998568463	568	-0.000101700519735459	
61.1522748456053	-0.019464111328125	56.7999998565938	569	0.000188195641385391	
61.2522748453529	-0.0194732666015625	56.8999998563413	570	-0.000274665915640071	
61.3522748451004	-0.0194610595703125	56.9999998560888	571	0.000361117563443258	
61.4522748448479	-0.0194732666015625	57.0999998558364	572	-0.000396675488445908	
61.5522748445954	-0.0194732666015625	57.1999998555839	573	0.000183098192792386	
61.652274844343	-0.0194580078125	57.2999998553314	574	0.000239070737734437	
61.7522748440905	-0.0194580078125	57.3999998550789	575	-0.000178006957867183	
61.852274843838	-0.0194580078125	57.4999998548265	576	5.08750963490456E-05	
61.9522748435855	-0.0194671630859375	57.599999854574	577	-0.000167874153703451	
62.0522748433331	-0.019451904296875	57.6999998543215	578	0.000386548897949979	
62.1522748430806	-0.0194671630859375	57.799999854069	579	-0.0004882991197519	
62.2522748428281	-0.019451904296875	57.8999998538166	580	0.000508614350110292	
62.3522748425756	-0.0194732666015625	57.9999998535641	581	-0.0006204973324202	
62.4522748423232	-0.019464111328125	58.0999998533116	582	0.000467934150947258	
62.5522748420707	-0.019451904296875	58.1999998530591	583	4.57341920991894E-05	
62.6522748418182	-0.019464111328125	58.2999998528067	584	-0.000335661403369159	
62.7522748415657	-0.0194793701171875	58.3999998525542	585	-9.66651641647331E-05	
62.8522748413133	-0.0194793701171875	58.4999998523017	586	0.000137326744152233	
62.9522748410608	-0.0194580078125	58.5999998520492	587	0.000340783677529544	
63.0522748408083	-0.0194671630859375	58.6999998517967	588	-0.00041709010838531	
63.1522748405558	-0.0194549560546875	58.7999998515443	589	0.00040182881639339	
63.2522748403034	-0.0194671630859375	58.8999998512918	590	-0.000396756222471595	
63.3522748400509	-0.0194488525390625	58.9999998510393	591	0.000518821703735739	
63.4522748397984	-0.0194580078125	59.0999998507868	592	-0.00042217512964271	
63.5522748395459	-0.019451904296875	59.1999998505344	593	0.000279732310445979	
63.6522748392935	-0.0194549560546875	59.2999998502819	594	-0.000157660644617863	
63.752274839041	-0.01944580078125	59.3999998500294	595	0.000223778406507336	
63.8522748387885	-0.0194427490234375	59.4999998497769	596	-6.09830603934824E-05	
63.952274838536	-0.019451904296875	59.5999998495245	597	-0.000172977815964259	
64.0522748382836	-0.019451904296875	59.699999849272	598	0.000116980438178871	
64.1522748380311	-0.019464111328125	59.7999998490195	599	-0.000254300975939259	
64.2522748377786	-0.0194427490234375	59.899999848767	600	0.000534045684617013	
64.3522748375261	-0.0194488525390625	59.9999998485146	601	-0.000401797762606293	
64.4522748372736	-0.0194427490234375	60.0999998482621	602	0.000254307175055146	
64.5522748370212	-0.01944580078125	60.1999998480096	603	-0.000147509214002639	
64.6522748367687	-0.0194366455078125	60.2999998477571	604	0.000223809445742518	
64.7522748365162	-0.0194549560546875	60.3999998475047	605	-0.000452685286290944	
64.8522748362637	-0.0194427490234375	60.4999998472522	606	0.00046795277739875	
64.9522748360113	-0.0194549560546875	60.5999998469997	607	-0.000427253951784223	
65.0522748357588	-0.0194427490234375	60.6999998467472	608	0.000406926264986396	
65.1522748355063	-0.0194427490234375	60.7999998464948	609	-0.000183098192792386	
65.2522748352538	-0.019427490234375	60.8999998462423	610	0.000320449791615829	
65.3522748350014	-0.0194427490234375	60.9999998459898	611	-0.000457751681096852	
65.4522748347489	-0.0194366455078125	61.0999998457373	612	0.000340752623742446	
65.5522748344964	-0.019439697265625	61.1999998454849	613	-0.000178006957867183	
65.6522748342439	-0.01944580078125	61.2999998452324	614	-5.59663312742487E-05	
65.7522748339915	-0.01943359375	61.3999998449799	615	0.000284873211057857	
65.852274833739	-0.0194366455078125	61.4999998447274	616	-0.000218774090171792	
65.9522748334865	-0.0194366455078125	61.599999844475	617	7.6300224463921E-05	
66.052274833234	-0.019439697265625	61.6999998442225	618	-6.6117754613515E-05	
66.1522748329816	-0.0194488525390625	61.79999984397	619	-0.00013223550922703	
66.2522748327291	-0.01942138671875	61.8999998437175	620	0.000600132392719388	
66.3522748324766	-0.019439697265625	61.999999843465	621	-0.000686621351633221	
66.4522748322241	-0.019427490234375	62.0999998432126	622	0.000528985518030822	
66.5522748319717	-0.019439697265625	62.1999998429601	623	-0.000427253951784223	
66.6522748317192	-0.0194427490234375	62.2999998427076	624	0.000127181527204812	
66.7522748314667	-0.0194244384765625	62.3999998424551	625	0.00033059497945942	
66.8522748312142	-0.01944580078125	62.4999998422027	626	-0.000615443394053727	
66.9522748309618	-0.0194366455078125	62.5999998419502	627	0.000478116620797664	
67.0522748307093	-0.0194183349609375	62.6999998416977	628	0.000157679271069355	
67.1522748304568	-0.0194122314453125	62.7999998414452	629	-7.12214095983654E-05	
67.2522748302043	-0.01942138671875	62.8999998411928	630	-0.000178031797986478	
67.3522748299519	-0.0194366455078125	62.9999998409403	631	-0.000152594249811955	
67.4522748296994	-0.01942138671875	63.0999998406878	632	0.000427229126216844	
67.5522748294469	-0.0194305419921875	63.1999998404353	633	-0.000396731367800385	
67.6522748291944	-0.01942138671875	63.2999998401829	634	0.000325528584653512	
67.752274828942	-0.019427490234375	63.3999998399304	635	-0.000249209726462141	
67.8522748286895	-0.01942138671875	63.4999998396779	636	0.000213589722989127	
67.952274828437	-0.019427490234375	63.5999998394254	637	-0.000203413466806524	
68.0522748281845	-0.0194366455078125	63.699999839173	638	-7.63312709750608E-05	
68.152274827932	-0.01943359375	63.7999998389205	639	0.000142442819196731	
68.2522748276796	-0.0194183349609375	63.899999838668	640	0.00021359593665693	
68.3522748274271	-0.0194244384765625	63.9999998384155	641	-0.000279757165117189	
68.4522748271746	-0.0194122314453125	64.0999998381631	642	0.000345899752574041	
68.5522748269221	-0.0194244384765625	64.1999998379106	643	-0.000386567524401471	
68.6522748266697	-0.0194183349609375	64.2999998376581	644	0.000295018428005278	
68.7522748264172	-0.0194183349609375	64.3999998374056	645	-0.00011192024248885	
68.8522748261647	-0.0194244384765625	64.4999998371532	646	-9.15677228476852E-05	
68.9522748259122	-0.019415283203125	64.5999998369007	647	0.000239058310398832	
69.0522748256598	-0.019427490234375	64.6999998366482	648	-0.000350904039805755	
69.1522748254073	-0.0194091796875	64.7999998363957	649	0.000508601951878518	
69.2522748251548	-0.0194183349609375	64.8999998361433	650	-0.000422144075855613	
69.3522748249023	-0.0194183349609375	64.9999998358908	651	0.000167824488016777	
69.4522748246499	-0.0194091796875	65.0999998356383	652	0.000137314331368543	
69.5522748243974	-0.0194091796875	65.1999998353858	653	-0.000106797968328465	
69.6522748241449	-0.0194183349609375	65.2999998351333	654	-0.000137320545036346	
69.7522748238924	-0.01942138671875	65.3999998348809	655	5.0813006964745E-05	
69.85227482364	-0.0194091796875	65.4999998346284	656	0.000228906894335523	
69.9522748233875	-0.0194000244140625	65.5999998343759	657	1.52426609929535E-05	
70.052274823135	-0.0194061279296875	65.6999998341234	658	-0.000178006957867183	
70.1522748228825	-0.01939697265625	65.799999833871	659	0.000269587093498558	
70.2522748226301	-0.0194122314453125	65.8999998336185	660	-0.000406895211199299	
70.3522748223776	-0.0194091796875	65.999999833366	661	0.000264483445789665	
70.4522748221251	-0.0194091796875	66.0999998331135	662	-8.64640678628348E-05	
70.5522748218726	-0.019415283203125	66.1999998328611	663	-0.000101737772638444	
70.6522748216202	-0.0194122314453125	66.2999998326086	664	0.000127206367324106	
70.7522748213677	-0.0194091796875	66.3999998323561	665	-2.48352929332896E-08	
70.8522748211152	-0.0194091796875	66.4999998321036	666	-2.54251299338648E-05	
70.9522748208627	-0.0194122314453125	66.5999998318512	667	-4.57590249425266E-05	
71.0522748206103	-0.0194122314453125	66.6999998315987	668	3.56138079951052E-05	
71.1522748203578	-0.0194091796875	66.7999998313462	669	4.5771445002174E-05	
71.2522748201053	-0.0194061279296875	66.8999998310937	670	2.03276867978275E-05	
71.3522748198528	-0.019403076171875	66.9999998308413	671	3.05349931295495E-05	
71.4522748196003	-0.0194091796875	67.0999998305888	672	-0.000137363997055218	
71.5522748193479	-0.0194091796875	67.1999998303363	673	8.13976730569266E-05	
71.6522748190954	-0.0194000244140625	67.2999998300838	674	0.000147490587551147	
71.7522748188429	-0.0194061279296875	67.3999998298314	675	-0.000218699584365822	
71.8522748185904	-0.019390869140625	67.4999998295789	676	0.000381445250241086	
71.952274818338	-0.0194061279296875	67.5999998293264	677	-0.000478122849017382	
72.0522748180855	-0.019390869140625	67.6999998290739	678	0.000508614350110292	
72.152274817833	-0.0194000244140625	67.7999998288215	679	-0.000396731367800385	
72.2522748175805	-0.019390869140625	67.899999828569	680	0.000325528584653512	
72.3522748173281	-0.0194000244140625	67.9999998283165	681	-0.00030518849962391	
72.4522748170756	-0.01939697265625	68.099999828064	682	0.000193324129213579	
72.5522748168231	-0.01939697265625	68.1999998278116	683	-6.61239682813175E-05	
72.6522748165706	-0.01939697265625	68.2999998275591	684	1.01886789707351E-05	
72.7522748163182	-0.019390869140625	68.3999998273066	685	0.000111870576802175	
72.8522748160657	-0.01939697265625	68.4999998270541	686	-0.000183073352673091	
72.9522748158132	-0.01939697265625	68.5999998268017	687	9.15553027880378E-05	
73.0522748155607	-0.019390869140625	68.6999998265492	688	9.15304699447006E-05	
73.1522748153083	-0.019390869140625	68.7999998262967	689	-7.12152032065205E-05	
73.2522748150558	-0.019390869140625	68.8999998260442	690	2.03276867978275E-05	
73.3522748148033	-0.019384765625	68.9999998257917	691	0.000111895409645513	
73.4522748145508	-0.0194000244140625	69.0999998255393	692	-0.000350935093592852	
73.5522748142984	-0.019384765625	69.1999998252868	693	0.000478116620797664	
73.6522748140459	-0.0193939208984375	69.2999998250343	694	-0.000396712741348892	
73.7522748137934	-0.0193939208984375	69.3999998247818	695	0.000157660644617863	
73.8522748135409	-0.0193878173828125	69.4999998245294	696	8.13914593891241E-05	
73.9522748132885	-0.019384765625	69.5999998242769	697	-1.52985394379357E-05	
74.052274813036	-0.019390869140625	69.6999998240244	698	-0.000127131861518137	
74.1522748127835	-0.0193878173828125	69.7999998237719	699	0.000137332957820036	
74.252274812531	-0.0193939208984375	69.8999998235195	700	-0.000167880367371254	
74.3522748122786	-0.019378662109375	69.999999823267	701	0.000361142418114468	
74.4522748120261	-0.019378662109375	70.0999998230145	702	-0.000198365683900192	
74.5522748117736	-0.019378662109375	70.199999822762	703	5.0862679927377E-05	
74.6522748115211	-0.019378662109375	70.2999998225096	704	0	
74.7522748112686	-0.0193817138671875	70.3999998222571	705	-5.5929078371264E-05	
74.8522748110162	-0.019384765625	70.4999998220046	706	-2.03649397008121E-05	
74.9522748107637	-0.0193817138671875	70.5999998217521	707	8.14349259599112E-05	
75.0522748105112	-0.0193756103515625	70.6999998214997	708	6.60742953186855E-05	
75.1522748102587	-0.019378662109375	70.7999998212472	709	-0.000116968018119223	
75.2522748100063	-0.0193756103515625	70.8999998209947	710	0.000111870576802175	
75.3522748097538	-0.0193756103515625	70.9999998207422	711	-4.57838614238426E-05	
75.4522748095013	-0.019378662109375	71.0999998204898	712	-4.5771445002174E-05	
75.5522748092488	-0.0193756103515625	71.1999998202373	713	9.15304699447006E-05	
75.6522748089964	-0.0193756103515625	71.2999998199848	714	-4.57838614238426E-05	
75.7522748087439	-0.01937255859375	71.3999998197323	715	6.61363810650073E-05	
75.8522748084914	-0.0193817138671875	71.4999998194799	716	-0.000203463132493198	
75.9522748082389	-0.0193756103515625	71.5999998192274	717	0.000228869641432539	
76.0522748079865	-0.0193634033203125	71.6999998189749	718	0.000122084093163721	
76.152274807734	-0.0193511962890625	71.7999998187224	719	0.000101737772638444	
76.2522748074815	-0.01937255859375	71.89999981847	720	-0.000493365514557809	
76.352274807229	-0.0193695068359375	71.9999998182175	721	0.00034583144588396	
76.4522748069766	-0.019378662109375	72.099999817965	722	-0.000274616235401481	
76.5522748067241	-0.0193603515625	72.1999998177125	723	0.000452641834272072	
76.6522748064716	-0.0193634033203125	72.29999981746	724	-0.000300078623695299	
76.7522748062191	-0.0193634033203125	72.3999998172076	725	9.6634124929551E-05	
76.8522748059667	-0.019366455078125	72.4999998169551	726	-6.60991281620227E-05	
76.9522748057142	-0.0193695068359375	72.5999998167026	727	-2.03649397008121E-05	
77.0522748054617	-0.019366455078125	72.6999998164501	728	8.14349259599112E-05	
77.1522748052092	-0.019366455078125	72.7999998161977	729	-4.57838614238426E-05	
77.2522748049568	-0.019354248046875	72.8999998159452	730	0.000233954662689939	
77.3522748047043	-0.0193634033203125	72.9999998156927	731	-0.000310230039758608	
77.4522748044518	-0.0193634033203125	73.0999998154402	732	0.000147484388435259	
77.5522748041993	-0.0193572998046875	73.1999998151878	733	8.13914593891241E-05	
77.6522748039469	-0.0193572998046875	73.2999998149353	734	-7.12276159902103E-05	
77.7522748036944	-0.019366455078125	73.3999998146828	735	-0.000147496801218949	
77.8522748034419	-0.0193572998046875	73.4999998144303	736	0.000274672114755958	
77.9522748031894	-0.0193603515625	73.5999998141779	737	-0.000193324129213579	
78.052274802937	-0.0193450927734375	73.6999998139254	738	0.000345868698786944	
78.1522748026845	-0.019354248046875	73.7999998136729	739	-0.000356044969521463	
78.252274802432	-0.0193450927734375	73.8999998134204	740	0.000325528584653512	
78.3522748021795	-0.019354248046875	73.999999813168	741	-0.00030518849962391	
78.452274801927	-0.0193450927734375	74.0999998129155	742	0.000305182271404192	
78.5522748016746	-0.0193511962890625	74.199999812663	743	-0.000249209726462141	
78.6522748014221	-0.0193511962890625	74.2999998124105	744	0.000101731566246599	
78.7522748011696	-0.0193572998046875	74.3999998121581	745	-0.00013223550922703	
78.8522748009171	-0.01934814453125	74.4999998119056	746	0.00023902727116365	
78.9522748006647	-0.0193511962890625	74.5999998116531	747	-0.000183073352673091	
79.0522748004122	-0.0193572998046875	74.6999998114006	748	-4.57776513940189E-05	
79.1522748001597	-0.019354248046875	74.7999998111482	749	0.000116949391667731	
79.2522747999072	-0.0193359375	74.8999998108957	750	0.000279806816251948	
79.3522747996548	-0.019354248046875	74.9999998106432	751	-0.000539180415216833	
79.4522747994023	-0.01934814453125	75.0999998103907	752	0.000386592379072681	
79.5522747991498	-0.0193389892578125	75.1999998101383	753	3.55765550921205E-05	
79.6522747988973	-0.019342041015625	75.2999998098858	754	-0.000142374527058564	
79.7522747986449	-0.019342041015625	75.3999998096333	755	6.60867153783329E-05	
79.8522747983924	-0.0193450927734375	75.4999998093808	756	-6.61550075164996E-05	
79.9522747981399	-0.019342041015625	75.5999998091283	757	9.15863492991775E-05	
80.0522747978874	-0.0193359375	75.6999998088759	758	6.61053418298252E-05	
80.152274797635	-0.0193450927734375	75.7999998086234	759	-0.000228894466999918	
80.2522747973825	-0.01934814453125	75.8999998083709	760	7.12214095983654E-05	
80.35227479713	-0.0193389892578125	75.9999998081184	761	0.00017291572294198	
80.4522747968775	-0.0193328857421875	76.099999807866	762	-5.05398202221841E-06	
80.5522747966251	-0.0193359375	76.1999998076135	763	-9.6634124929551E-05	
80.6522747963726	-0.0193328857421875	76.299999807361	764	0.000111889203253668	
80.7522747961201	-0.0193267822265625	76.3999998071085	765	6.61363810650073E-05	
80.8522747958676	-0.0193359375	76.4999998068561	766	-0.000228894466999918	
80.9522747956152	-0.019317626953125	76.5999998066036	767	0.000462855357909575	
81.0522747953627	-0.019329833984375	76.6999998063511	768	-0.00046795277739875	
81.1522747951102	-0.019329833984375	76.7999998060986	769	0.000203438292373903	
81.2522747948577	-0.0193389892578125	76.8999998058462	770	-0.000208541954634711	
81.3522747946053	-0.019317626953125	76.9999998055937	771	0.000498481560498476	
81.4522747943528	-0.01932373046875	77.0999998053412	772	-0.000391664972994477	
81.5522747941003	-0.01932373046875	77.1999998050887	773	0.000142436605528928	
81.6522747938478	-0.019329833984375	77.2999998048363	774	-0.000132247936562635	
81.7522747935953	-0.01932373046875	77.3999998045838	775	0.000183091979124583	
81.8522747933429	-0.01932373046875	77.4999998043313	776	-9.15366763365455E-05	
81.9522747930904	-0.01932373046875	77.5999998040788	777	2.03525214601541E-05	
82.0522747928379	-0.0193115234375	77.6999998038264	778	0.000223821858526208	
82.1522747925854	-0.0193206787109375	77.7999998035739	779	-0.000310285948216915	
82.252274792333	-0.01932373046875	77.8999998033214	780	9.15490963961929E-05	
82.3522747920805	-0.0193115234375	77.9999998030689	781	0.000228925520787016	
82.452274791828	-0.0193115234375	78.0999998028165	782	-0.000152625289047137	
82.5522747915755	-0.0193145751953125	78.199999802564	783	-1.52923312271014E-05	
82.6522747913231	-0.0193145751953125	78.2999998023115	784	3.56076016032603E-05	
82.7522747910706	-0.0193023681640625	78.399999802059	785	0.000213626975892112	
82.8522747908181	-0.01932373046875	78.4999998018066	786	-0.000534070539288223	
82.9522747905656	-0.0193206787109375	78.5999998015541	787	0.000345918379025534	
83.0522747903132	-0.0193084716796875	78.6999998013016	788	0.000116949391667731	
83.1522747900607	-0.0193115234375	78.7999998010491	789	-0.000188145961146802	
83.2522747898082	-0.0193023681640625	78.8999998007967	790	0.000244093665969558	
83.3522747895557	-0.0193115234375	78.9999998005442	791	-0.000284804933471605	
83.4522747893033	-0.0193267822265625	79.0999998002917	792	-0.000142436605528928	
83.5522747890508	-0.01929931640625	79.1999998000392	793	0.000651007518172264	
83.6522747887983	-0.0193145751953125	79.2999997997867	794	-0.000651038542855531	
83.7522747885458	-0.0193145751953125	79.3999997995343	795	0.00026955603971146	
83.8522747882934	-0.0193023681640625	79.4999997992818	796	0.000172940563061275	
83.9522747880409	-0.0193145751953125	79.5999997990293	797	-0.000366233638487756	
84.0522747877884	-0.0193023681640625	79.6999997987768	798	0.000406913837650791	
84.1522747875359	-0.0193115234375	79.7999997985244	799	-0.000350947520928457	
84.2522747872835	-0.0193084716796875	79.8999997982719	800	0.000203413466806524	
84.352274787031	-0.0193084716796875	79.9999997980194	801	-6.60867153783329E-05	
84.4522747867785	-0.0193115234375	80.0999997977669	802	-4.57528185506817E-05	
84.552274786526	-0.01929931640625	80.1999997975145	803	0.00025933631695807	
84.6522747862736	-0.0193115234375	80.299999797262	804	-0.00037634780164808	
84.7522747860211	-0.0193023681640625	80.3999997970095	805	0.00035091646714136	
84.8522747857686	-0.0193023681640625	80.499999796757	806	-0.000147484388435259	
84.9522747855161	-0.0193023681640625	80.5999997965046	807	3.05163648590678E-05	
85.0522747852636	-0.01929931640625	80.6999997962521	808	5.5929078371264E-05	
85.1522747850112	-0.019305419921875	80.7999997959996	809	-0.000147471961099654	
85.2522747847587	-0.01929931640625	80.8999997957471	810	0.000193243409739807	
85.3522747845062	-0.0193084716796875	80.9999997954947	811	-0.000259392196312547	
85.4522747842537	-0.01929931640625	81.0999997952422	812	0.000295006029773504	
85.5522747840013	-0.019305419921875	81.1999997949897	813	-0.000249209726462141	
85.6522747837488	-0.0193115234375	81.2999997947372	814	-1.0176260730077E-05	
85.7522747834963	-0.0193023681640625	81.3999997944848	815	0.000218687171582133	
85.8522747832438	-0.019287109375	81.4999997942323	816	0.000152600448927842	
85.9522747829914	-0.0192962646484375	81.5999997939798	817	-0.000315339915687218	
86.0522747827389	-0.019281005859375	81.6999997937273	818	0.000437399168731645	
86.1522747824864	-0.0192779541015625	81.7999997934749	819	-0.000152612876263447	
86.2522747822339	-0.0192840576171875	81.8999997932224	820	-9.66154984780587E-05	
86.3522747819815	-0.0192901611328125	81.9999997929699	821	-3.05039484373992E-05	
86.452274781729	-0.0192901611328125	82.0999997927174	822	5.08688863192219E-05	
86.5522747814765	-0.0192779541015625	82.199999792465	823	0.000203438292373903	
86.652274781224	-0.019287109375	82.2999997922125	824	-0.000310230039758608	
86.7522747809716	-0.01929931640625	82.39999979196	825	-7.63312709750608E-05	
86.8522747807191	-0.019281005859375	82.4999997917075	826	0.000447612692369148	
86.9522747804666	-0.019281005859375	82.599999791455	827	-0.000254338228842244	
87.0522747802141	-0.019287109375	82.6999997912026	828	-5.08750963490456E-05	
87.1522747799617	-0.0192901611328125	82.7999997909501	829	1.52923312271014E-05	
87.2522747797092	-0.019281005859375	82.8999997906976	830	0.000183104406460188	
87.3522747794567	-0.019281005859375	82.9999997904451	831	-0.000116999064630363	
87.4522747792042	-0.0192962646484375	83.0999997901927	832	-0.000249234581133351	
87.5522747789518	-0.019287109375	83.1999997899402	833	0.000345850072335452	
87.6522747786993	-0.01927490234375	83.2999997896877	834	6.61550075164996E-05	
87.7522747784468	-0.0192718505859375	83.3999997894352	835	-5.5960121244425E-05	
87.8522747781943	-0.019287109375	83.4999997891828	836	-0.000274653488304466	
87.9522747779419	-0.0192840576171875	83.5999997889303	837	0.000244118506088853	
88.0522747776894	-0.0192779541015625	83.6999997886778	838	2.54313399636885E-05	
88.1522747774369	-0.0192779541015625	83.7999997884253	839	-6.10203132964671E-05	
88.2522747771844	-0.0192962646484375	83.8999997881729	840	-0.000315321289235726	
88.3522747769319	-0.0192626953125	83.9999997879204	841	0.000829008291475475	
88.4522747766795	-0.019281005859375	84.0999997876679	842	-0.000788315664976835	
88.552274776427	-0.0192718505859375	84.1999997874154	843	0.000493322033435106	
88.6522747761745	-0.01927490234375	84.299999787163	844	-0.000223759780055843	
88.752274775922	-0.019268798828125	84.3999997869105	845	0.00017798833141569	
88.8522747756696	-0.019268798828125	84.499999786658	846	-8.13852529972792E-05	
88.9522747754171	-0.0192779541015625	84.5999997864055	847	-0.000147509214002639	
89.0522747751646	-0.019281005859375	84.6999997861531	848	5.08999328303616E-05	
89.1522747749121	-0.019268798828125	84.7999997859006	849	0.000228819961193949	
89.2522747746597	-0.0192779541015625	84.8999997856481	850	-0.000320418737828732	
89.3522747744072	-0.0192718505859375	84.9999997853956	851	0.000259423250099644	
89.4522747741547	-0.0192657470703125	85.0999997851432	852	1.01700525192427E-05	
89.5522747739022	-0.0192718505859375	85.1999997848907	853	-0.000162789132446051	
89.6522747736498	-0.0192626953125	85.2999997846382	854	0.000259404623648152	
89.7522747733973	-0.0192779541015625	85.3999997843857	855	-0.000406882812967524	
89.8522747731448	-0.0192779541015625	85.4999997841333	856	0.000208541954634711	
89.9522747728923	-0.0192657470703125	85.5999997838808	857	0.000172959189512767	
90.0522747726399	-0.0192657470703125	85.6999997836283	858	-0.000142449032864533	
90.1522747723874	-0.0192626953125	85.7999997833758	859	9.66154984780587E-05	
90.2522747721349	-0.0192596435546875	85.8999997831233	860	2.0408400814631E-05	
90.3522747718824	-0.019268798828125	85.9999997828709	861	-0.000193324129213579	
90.45227477163	-0.0192626953125	86.0999997826184	862	0.000228888267884031	
90.5522747713775	-0.0192474365234375	86.1999997823659	863	0.000178031797986478	
90.652274771125	-0.0192596435546875	86.2999997821134	864	-0.000381432822905481	
90.7522747708725	-0.01927490234375	86.399999781861	865	-8.64702815306373E-05	
90.8522747706201	-0.0192596435546875	86.4999997816085	866	0.00041709010838531	
90.9522747703676	-0.0192626953125	86.599999781356	867	-0.000284848385490477	
91.0522747701151	-0.0192474365234375	86.6999997811035	868	0.000366233638487756	
91.1522747698626	-0.019244384765625	86.7999997808511	869	-0.00013221068365965	
91.2522747696102	-0.0192535400390625	86.8999997805986	870	-0.000152631502714939	
91.3522747693577	-0.0192626953125	86.9999997803461	871	-5.08564698975533E-05	
91.4522747691052	-0.0192596435546875	87.0999997800936	872	0.00013228518946562	
91.5522747688527	-0.0192596435546875	87.1999997798412	873	-6.61239682813175E-05	
91.6522747686003	-0.01925048828125	87.2999997795887	874	0.000178025584318675	
91.7522747683478	-0.01925048828125	87.3999997793362	875	-0.000106829007563647	
91.8522747680953	-0.019244384765625	87.4999997790837	876	0.000142417979077436	
91.9522747678428	-0.0192535400390625	87.5999997788313	877	-0.000239070737734437	
92.0522747675903	-0.019256591796875	87.6999997785788	878	7.12214095983654E-05	
92.1522747673379	-0.01923828125	87.7999997783263	879	0.000340752623742446	
92.2522747670854	-0.019256591796875	87.8999997780738	880	-0.000559477019123733	
92.3522747668329	-0.0192626953125	87.9999997778214	881	0.000162745665875264	
92.4522747665804	-0.0192535400390625	88.0999997775689	882	0.000178031797986478	
92.552274766328	-0.01925048828125	88.1999997773164	883	-7.12027831468731E-05	
92.6522747660755	-0.0192413330078125	88.2999997770639	884	0.000162727039423771	
92.752274765823	-0.0192474365234375	88.3999997768115	885	-0.000208529527299106	
92.8522747655705	-0.019244384765625	88.499999776559	886	0.000157722737640142	
92.9522747653181	-0.0192413330078125	88.5999997763065	887	-2.48352929332896E-08	
93.0522747650656	-0.0192535400390625	88.699999776054	888	-0.000249240780249238	
93.1522747648131	-0.0192413330078125	88.7999997758016	889	0.000376391282770783	
93.2522747645606	-0.0192352294921875	88.8999997755491	890	-7.12027831468731E-05	
93.3522747643082	-0.0192413330078125	88.9999997752966	891	-0.000142442819196731	
93.4522747640557	-0.019232177734375	89.0999997750441	892	0.000259404623648152	
93.5522747638032	-0.019244384765625	89.1999997747917	893	-0.000350904039805755	
93.6522747635507	-0.01923828125	89.2999997745392	894	0.000284786307020113	
93.7522747632983	-0.01923828125	89.3999997742867	895	-0.000111901616037358	
93.8522747630458	-0.0192352294921875	89.4999997740342	896	7.63064381317236E-05	
93.9522747627933	-0.019244384765625	89.5999997737817	897	-0.000203463132493198	
94.0522747625408	-0.0192413330078125	89.6999997735293	898	0.000172940563061275	
94.1522747622884	-0.01922607421875	89.7999997732768	899	0.000213626975892112	
94.2522747620359	-0.0192291259765625	89.8999997730243	900	-0.000223778406507336	
94.3522747617834	-0.01922607421875	89.9999997727718	901	0.000142405566293746	
94.4522747615309	-0.01922607421875	90.0999997725194	902	-4.5771445002174E-05	
94.5522747612785	-0.0192352294921875	90.1999997722669	903	-0.000157666858285666	
94.652274761026	-0.0192291259765625	90.2999997720144	904	0.000218699584365822	
94.7522747607735	-0.0192291259765625	90.3999997717619	905	-0.000101700519735459	
94.852274760521	-0.019232177734375	90.4999997715095	906	-3.56200180249289E-05	
94.9522747602686	-0.0192352294921875	90.599999771257	907	-2.03028521355009E-05	
95.0522747600161	-0.01922607421875	90.6999997710045	908	0.000193230996956117	
95.1522747597636	-0.0192291259765625	90.799999770752	909	-0.000172897096490487	
95.2522747595111	-0.01922607421875	90.8999997704996	910	0.000122059253044426	
95.3522747592586	-0.0192169189453125	90.9999997702471	911	0.000122065459436271	
95.4522747590062	-0.0192291259765625	91.0999997699946	912	-0.000320387684041634	
95.5522747587537	-0.01923828125	91.1999997697421	913	5.04156423630775E-06	
95.6522747585012	-0.01922607421875	91.2999997694897	914	0.000289933406747878	
95.7522747582487	-0.01922607421875	91.3999997692372	915	-0.000172940563061275	
95.8522747579963	-0.019232177734375	91.4999997689847	916	-7.12152032065205E-05	
95.9522747577438	-0.0192291259765625	91.5999997687322	917	0.000127206367324106	
96.0522747574913	-0.0192138671875	91.6999997684798	918	0.000223790819291025	
96.1522747572388	-0.019219970703125	91.7999997682273	919	-0.000279738509561867	
96.2522747569864	-0.0192352294921875	91.8999997679748	920	-0.000157691683853045	
96.3522747567339	-0.0192291259765625	91.9999997677223	921	0.000269574695266783	
96.4522747564814	-0.019219970703125	92.0999997674699	922	4.57900714536663E-05	
96.5522747562289	-0.0192108154296875	92.1999997672174	923	8.13542064861394E-05	
96.6522747559765	-0.01923828125	92.2999997669649	924	-0.000579842017032206	
96.752274755724	-0.0192108154296875	92.3999997667124	925	0.000854501675348729	
96.8522747554715	-0.019219970703125	92.49999976646	926	-0.000579829560592771	
96.952274755219	-0.0192169189453125	92.5999997662075	927	0.000254276150371879	
97.0522747549666	-0.0192230224609375	92.699999765955	928	-0.000177994545083493	
97.1522747547141	-0.0192138671875	92.7999997657025	929	0.000249240780249238	
97.2522747544616	-0.019207763671875	92.89999976545	930	-1.52923312271014E-05	
97.3522747542091	-0.0192138671875	92.9999997651976	931	-0.000152550783241168	
97.4522747539567	-0.0192169189453125	93.0999997649451	932	3.55765550921205E-05	
97.5522747537042	-0.0192047119140625	93.1999997646926	933	0.000239101776969619	
97.6522747534517	-0.019195556640625	93.2999997644401	934	1.52116163008031E-05	
97.7522747531992	-0.0192169189453125	93.3999997641877	935	-0.00045775790931657	
97.8522747529468	-0.019219970703125	93.4999997639352	936	0.000223834285861813	
97.9522747526943	-0.019219970703125	93.5999997636827	937	-3.56386444764212E-05	
98.0522747524418	-0.019195556640625	93.6999997634302	938	0.000437405367847532	
98.1522747521893	-0.0192047119140625	93.7999997631778	939	-0.000452654232503846	
98.2522747519369	-0.0192138671875	93.8999997629253	940	2.03338950086618E-05	
98.3522747516844	-0.019195556640625	93.9999997626728	941	0.000411992659792304	
98.4522747514319	-0.0192108154296875	94.0999997624203	942	-0.000523881870321929	
98.5522747511794	-0.0192047119140625	94.1999997621679	943	0.000350959948264062	
98.6522747509269	-0.0192108154296875	94.2999997619154	944	-0.000233998129260726	
98.7522747506745	-0.019207763671875	94.3999997616629	945	0.000147496801218949	
98.852274750422	-0.0191925048828125	94.4999997614104	946	0.000223784605623223	
98.9522747501695	-0.0191925048828125	94.599999761158	947	-0.000167861740919761	
99.052274749917	-0.0192138671875	94.6999997609055	948	-0.000340752623742446	
99.1522747496646	-0.0191986083984375	94.799999760653	949	0.000528979289811105	
99.2522747494121	-0.0192138671875	94.8999997604005	950	-0.000528954493347555	
99.3522747491596	-0.0191986083984375	94.9999997601481	951	0.000508639204781502	
99.4522747489071	-0.019207763671875	95.0999997598956	952	-0.000396756222471595	
99.5522747486547	-0.019195556640625	95.1999997596431	953	0.000381482503144071	
99.6522747484022	-0.01920166015625	95.2999997593906	954	-0.000284848385490477	
99.7522747481497	-0.019189453125	95.3999997591382	955	0.000335735909175128	
99.8522747478972	-0.01920166015625	95.4999997588857	956	-0.000386611005524173	
99.9522747476448	-0.0191986083984375	95.5999997586332	957	0.000239120403421111	
100.052274747392	-0.019195556640625	95.6999997583807	958	-2.03711479116464E-05	
100.15227474714	-0.019189453125	95.7999997581283	959	8.64826943143271E-05	
100.252274746887	-0.0191925048828125	95.8999997578758	960	-0.000117036317533348	
100.352274746635	-0.0191986083984375	95.9999997576233	961	-5.5904241889948E-05	
100.452274746382	-0.01920166015625	96.0999997573708	962	5.06019068780006E-06	
100.55227474613	-0.019189453125	96.1999997571183	963	0.000239101776969619	
100.652274745877	-0.019189453125	96.2999997568659	964	-0.000152625289047137	
100.752274745625	-0.019195556640625	96.3999997566134	965	-7.12214095983654E-05	
100.852274745372	-0.019195556640625	96.4999997563609	966	7.12214095983654E-05	
100.95227474512	-0.0191741943359375	96.5999997561084	967	0.000371306261513382	
101.052274744868	-0.019189453125	96.699999755856	968	-0.00052899174625054	
101.152274744615	-0.019195556640625	96.7999997556035	969	0.000137314331368543	
101.252274744363	-0.01917724609375	96.899999755351	970	0.000356032542185858	
101.35227474411	-0.019189453125	96.9999997550985	971	-0.000457745481980965	
101.452274743858	-0.019183349609375	97.0999997548461	972	0.000315333716571331	
101.552274743605	-0.0191864013671875	97.1999997545936	973	-0.000167849328136072	
101.652274743353	-0.019189453125	97.2999997543411	974	4.34617604128107E-08	
101.7522747431	-0.0191802978515625	97.3999997540886	975	0.000193230996956117	
101.852274742848	-0.0191802978515625	97.4999997538362	976	-0.000116968018119223	
101.952274742595	-0.019171142578125	97.5999997535837	977	0.000198353271116503	
102.052274742343	-0.019195556640625	97.6999997533312	978	-0.00055437337141484	
102.15227474209	-0.0191864013671875	97.7999997530787	979	0.000483170617371798	
102.252274741838	-0.019171142578125	97.8999997528263	980	9.15739292395301E-05	
102.352274741585	-0.0191741943359375	97.9999997525738	981	-0.000203425879590213	
102.452274741333	-0.01917724609375	98.0999997523213	982	3.04542772937566E-05	
102.55227474108	-0.019171142578125	98.1999997520688	983	0.000137345370603725	
102.652274740828	-0.019171142578125	98.2999997518164	984	-8.13666265457869E-05	
102.752274740575	-0.0191741943359375	98.3999997515639	985	-3.55765550921205E-05	
102.852274740323	-0.019183349609375	98.4999997513114	986	-0.000132266563014127	
102.95227474007	-0.0191619873046875	98.5999997510589	987	0.000488268065964803	
103.052274739818	-0.01917724609375	98.6999997508065	988	-0.000559495703782886	
103.152274739566	-0.0191619873046875	98.799999750554	989	0.000528954493347555	
103.252274739313	-0.0191741943359375	98.8999997503015	990	-0.000452660460723564	
103.352274739061	-0.0191650390625	98.999999750049	991	0.000361092737875879	
103.452274738808	-0.0191741943359375	99.0999997497966	992	-0.000315321289235726	
103.552274738556	-0.0191741943359375	99.1999997495441	993	0.000137308117700741	
103.652274738303	-0.0191558837890625	99.2999997492916	994	0.000305151246720925	
103.752274738051	-0.019171142578125	99.3999997490391	995	-0.000493334431666881	
103.852274737798	-0.0191650390625	99.4999997487866	996	0.00035096614737995	
103.952274737546	-0.0191680908203125	99.5999997485342	997	-0.000178013171534985	
104.052274737293	-0.019171142578125	99.6999997482817	998	-1.8626469255878E-08	
104.152274737041	-0.019171142578125	99.7999997480292	999	2.54561746260151E-05	
104.252274736788	-0.019171142578125	99.8999997477767	1000	-1.01700525192427E-05	
104.352274736536	-0.0191680908203125	99.9999997475243	1001	5.5984957725741E-05	
104.452274736283	-0.0191680908203125	100.099999747272	1002	-3.56076016032603E-05	
104.552274736031	-0.0191558837890625	100.199999747019	1003	0.000233954662689939	
104.652274735778	-0.019158935546875	100.299999746767	1004	-0.00019832223188132	
104.752274735526	-0.01915283203125	100.399999746514	1005	0.000188164587598294	
104.852274735273	-0.0191619873046875	100.499999746262	1006	-0.000249240780249238	
104.952274735021	-0.01915283203125	100.599999746009	1007	0.00029503705445677	
105.052274734769	-0.019171142578125	100.699999745757	1008	-0.000473050225991756	
105.152274734516	-0.019158935546875	100.799999745504	1009	0.000467983831185848	
105.252274734264	-0.019158935546875	100.899999745252	1010	-0.000203487972612493	
105.352274734011	-0.0191650390625	100.999999745	1011	-7.12214095983654E-05	
105.452274733759	-0.0191558837890625	101.099999744747	1012	0.000239058310398832	
105.552274733506	-0.019158935546875	101.199999744495	1013	-0.000183067153557204	
105.652274733254	-0.0191497802734375	101.299999744242	1014	0.000233923623454757	
105.752274733001	-0.01915283203125	101.39999974399	1015	-0.000172897096490487	
105.852274732749	-0.019134521484375	101.499999743737	1016	0.000401803990826011	
105.952274732496	-0.0191497802734375	101.599999743485	1017	-0.00050353555707261	
106.052274732244	-0.01915283203125	101.699999743232	1018	0.000183123032911681	
106.152274731991	-0.01915283203125	101.79999974298	1019	-1.52488692037878E-05	
106.252274731739	-0.01915283203125	101.899999742727	1020	-1.01576342785847E-05	
106.352274731486	-0.019140625	101.999999742475	1021	0.000223778406507336	
106.452274731234	-0.0191558837890625	102.099999742222	1022	-0.000422137876739725	
106.552274730981	-0.0191436767578125	102.19999974197	1023	0.000442527671111748	
106.652274730729	-0.019146728515625	102.299999741717	1024	-0.000249290460487828	
106.752274730476	-0.019146728515625	102.399999741465	1025	7.6300224463921E-05	
106.852274730224	-0.019140625	102.499999741212	1026	0.000101719146186952	
106.952274729971	-0.0191436767578125	102.59999974096	1027	-0.000127119448734447	
107.052274729719	-0.019134521484375	102.699999740707	1028	0.000223753566388041	
107.152274729467	-0.0191314697265625	102.799999740455	1029	-6.10389397479594E-05	
107.252274729214	-0.019134521484375	102.899999740202	1030	-6.10265233262908E-05	
107.352274728962	-0.0191497802734375	102.99999973995	1031	-0.000233973289141431	
107.452274728709	-0.0191436767578125	103.099999739698	1032	0.000279757165117189	
107.552274728457	-0.019158935546875	103.199999739445	1033	-0.000401835044613108	
107.652274728204	-0.0191375732421875	103.299999739193	1034	0.000590012059547007	
107.752274727952	-0.019140625	103.39999973894	1035	-0.000356044969521463	
107.852274727699	-0.01912841796875	103.499999738688	1036	0.000330650887917727	
107.952274727447	-0.0191375732421875	103.599999738435	1037	-0.000320462189847603	
108.052274727194	-0.019140625	103.699999738183	1038	9.15490963961929E-05	
108.152274726942	-0.0191314697265625	103.79999973793	1039	0.000172946762177162	
108.252274726689	-0.019140625	103.899999737678	1040	-0.000284848385490477	
108.352274726437	-0.01912841796875	103.999999737425	1041	0.000361161044565961	
108.452274726184	-0.0191314697265625	104.099999737173	1042	-0.000228944147238508	
108.552274725932	-0.0191314697265625	104.19999973692	1043	7.6300224463921E-05	
108.652274725679	-0.0191162109375	104.299999736668	1044	0.00026955603971146	
108.752274725427	-0.019122314453125	104.399999736415	1045	-0.000289889954729006	
108.852274725174	-0.019122314453125	104.499999736163	1046	0.000122077879495919	
108.952274724922	-0.019122314453125	104.59999973591	1047	-2.03276867978275E-05	
109.052274724669	-0.0191253662109375	104.699999735658	1048	-5.59663312742487E-05	
109.152274724417	-0.0191314697265625	104.799999735405	1049	-7.62815980124287E-05	
109.252274724165	-0.0191192626953125	104.899999735153	1050	0.000284823559923097	
109.352274723912	-0.0191192626953125	104.9999997349	1051	-0.000162764292326756	
109.45227472366	-0.0191131591796875	105.099999734648	1052	0.000152600448927842	
109.552274723407	-0.019134521484375	105.199999734396	1053	-0.000462880183476955	
109.652274723155	-0.019122314453125	105.299999734143	1054	0.000493402767460793	
109.752274722902	-0.0191162109375	105.399999733891	1055	-0.000101756399089936	
109.85227472265	-0.0191375732421875	105.499999733638	1056	-0.00042212544940412	
109.952274722397	-0.0191131591796875	105.599999733386	1057	0.000717156333848834	
110.052274722145	-0.0191314697265625	105.699999733133	1058	-0.000691774650476873	
110.152274721892	-0.0191162109375	105.799999732881	1059	0.000574750767555088	
110.25227472164	-0.019110107421875	105.899999732628	1060	-0.000127162900753319	
110.352274721387	-0.0191131591796875	105.999999732376	1061	-7.62567651690915E-05	
110.452274721135	-0.0191131591796875	106.099999732123	1062	5.59166619495954E-05	
110.552274720882	-0.0191192626953125	106.199999731871	1063	-0.000122084093163721	
110.65227472063	-0.0191070556640625	106.299999731618	1064	0.00029503705445677	
110.752274720377	-0.0191253662109375	106.399999731366	1065	-0.000498475390486419	
110.852274720125	-0.0191192626953125	106.499999731113	1066	0.000366246065823361	
110.952274719872	-0.0191253662109375	106.599999730861	1067	-0.000244168186327443	
111.05227471962	-0.0191192626953125	106.699999730608	1068	0.00020348175894469	
111.152274719367	-0.019122314453125	106.799999730356	1069	-0.000147496801218949	
111.252274719115	-0.0191131591796875	106.899999730103	1070	0.000223797032958828	
111.352274718863	-0.0191192626953125	106.999999729851	1071	-0.000228906894335523	
111.45227471861	-0.019097900390625	107.099999729598	1072	0.000493390311021358	
111.552274718358	-0.0191009521484375	107.199999729346	1073	-0.000325572065776214	
111.652274718105	-0.019110107421875	107.299999729094	1074	-6.10203132964671E-05	
111.752274717853	-0.0191162109375	107.399999728841	1075	-1.52550783241168E-05	
111.8522747176	-0.01910400390625	107.499999728589	1076	0.000264483445789665	
111.952274717348	-0.01910400390625	107.599999728336	1077	-0.000162764292326756	
112.052274717095	-0.0191009521484375	107.699999728084	1078	9.66217048699036E-05	
112.152274716843	-0.0191131591796875	107.799999727831	1079	-0.000259379798080772	
112.25227471659	-0.019097900390625	107.899999727579	1080	0.000432307919254527	
112.352274716338	-0.01910400390625	107.999999727326	1081	-0.00033061983413063	
112.452274716085	-0.019097900390625	108.099999727074	1082	0.000233991915592924	
112.552274715833	-0.01910400390625	108.199999726821	1083	-0.00020348175894469	
112.65227471558	-0.019097900390625	108.299999726569	1084	0.000203475545276888	
112.752274715328	-0.019085693359375	108.399999726316	1085	0.000132192057208158	
112.852274715075	-0.0191070556640625	108.499999726064	1086	-0.000513668346684426	
112.952274714823	-0.0191070556640625	108.599999725811	1087	0.000289921008516103	
113.05227471457	-0.0191009521484375	108.699999725559	1088	4.06677900173236E-05	
113.152274714318	-0.0191009521484375	108.799999725306	1089	-7.12152032065205E-05	
113.252274714065	-0.0190948486328125	108.899999725054	1090	0.00013223550922703	
113.352274713813	-0.019097900390625	108.999999724801	1091	-0.000127119448734447	
113.452274713561	-0.0190948486328125	109.099999724549	1092	0.000111845736682881	
113.552274713308	-0.01907958984375	109.199999724297	1093	0.000234004328376614	
113.652274713056	-0.019085693359375	109.299999724044	1094	-0.000279750936897472	
113.752274712803	-0.0190948486328125	109.399999723792	1095	-4.57900714536663E-05	
113.852274712551	-0.019091796875	109.499999723539	1096	0.000142461445648223	
113.952274712298	-0.0191009521484375	109.599999723287	1097	-0.000234010542044416	
114.052274712046	-0.019097900390625	109.699999723034	1098	0.000172959189512767	
114.152274711793	-0.0190887451171875	109.799999722782	1099	0.000101688106951769	
114.252274711541	-0.0190948486328125	109.899999722529	1100	-0.000208529527299106	
114.352274711288	-0.019091796875	109.999999722277	1101	0.000157722737640142	
114.452274711036	-0.0190948486328125	110.099999722024	1102	-0.000111932662548497	
114.552274710783	-0.019091796875	110.199999721772	1103	0.000101781239209231	
114.652274710531	-0.019091796875	110.299999721519	1104	-4.57838614238426E-05	
114.752274710278	-0.019085693359375	110.399999721267	1105	0.000122046832984779	
114.852274710026	-0.0190826416015625	110.499999721014	1106	-1.52364518726245E-05	
114.952274709773	-0.0190826416015625	110.599999720762	1107	-1.52861230162671E-05	
115.052274709521	-0.019073486328125	110.699999720509	1108	0.000178006957867183	
115.152274709268	-0.019097900390625	110.799999720257	1109	-0.000554379599634558	
115.252274709016	-0.019061279296875	110.899999720004	1110	0.000986724742688239	
115.352274708764	-0.0190826416015625	110.999999719752	1111	-0.00090025452664122	
115.452274708511	-0.0190887451171875	111.099999719499	1112	0.000259373569861054	
115.552274708259	-0.0190673828125	111.199999719247	1113	0.000391664972994477	
115.652274708006	-0.019085693359375	111.299999718995	1114	-0.000605316774453968	
115.752274707754	-0.019085693359375	111.399999718742	1115	0.000284835958154872	
115.852274707501	-0.0190765380859375	111.49999971849	1116	0.000106835221231449	
115.952274707249	-0.0190673828125	111.599999718237	1117	6.10327297181357E-05	
116.052274706996	-0.0190887451171875	111.699999717985	1118	-0.000467959005618468	
116.152274706744	-0.0190673828125	111.799999717732	1119	0.000671409710776061	
116.252274706491	-0.01907958984375	111.89999971748	1120	-0.000544271664693952	
116.352274706239	-0.0190704345703125	111.999999717227	1121	0.000381494930479676	
116.452274705986	-0.0190704345703125	112.099999716975	1122	-0.000147527840454131	
116.552274705734	-0.0190643310546875	112.199999716722	1123	0.000142411779961549	
116.652274705481	-0.019061279296875	112.29999971647	1124	-1.52116163008031E-05	
116.752274705229	-0.0190673828125	112.399999716217	1125	-0.000127169114421122	
116.852274704976	-0.0190643310546875	112.499999715965	1126	0.000137295704917051	
116.952274704724	-0.0190673828125	112.599999715712	1127	-0.000111845736682881	
117.052274704471	-0.0190673828125	112.69999971546	1128	4.57403984910343E-05	
117.152274704219	-0.0190643310546875	112.799999715207	1129	4.57528185506817E-05	
117.252274703966	-0.0190704345703125	112.899999714955	1130	-0.000147478174767457	
117.352274703714	-0.0190643310546875	112.999999714702	1131	0.0001932620361913	
117.452274703462	-0.0190521240234375	113.09999971445	1132	0.000132278975797817	
117.552274703209	-0.0190582275390625	113.199999714197	1133	-0.000234010542044416	
117.652274702957	-0.0190521240234375	113.299999713945	1134	0.000223821858526208	
117.752274702704	-0.01905517578125	113.399999713693	1135	-0.000147552680573426	
117.852274702452	-0.0190521240234375	113.49999971344	1136	0.000111932662548497	
117.952274702199	-0.0190643310546875	113.599999713188	1137	-0.000269618147285655	
118.052274701947	-0.019061279296875	113.699999712935	1138	0.000208604033105075	
118.152274701694	-0.0190673828125	113.799999712683	1139	-0.000188208054169081	
118.252274701442	-0.01905517578125	113.89999971243	1140	0.000305132620269433	
118.352274701189	-0.0190521240234375	113.999999712178	1141	-0.000106779341876972	
118.452274700937	-0.01905517578125	114.099999711925	1142	-5.0918559281854E-05	
118.552274700684	-0.019061279296875	114.199999711673	1143	-6.60742953186855E-05	
118.652274700432	-0.019049072265625	114.29999971142	1144	0.000284804933471605	
118.752274700179	-0.01904296875	114.399999711168	1145	-5.08254270243924E-05	
118.852274699927	-0.0190399169921875	114.499999710915	1146	2.53940870607039E-05	
118.952274699674	-0.019049072265625	114.599999710663	1147	-0.000183104406460188	
119.052274699422	-0.01905517578125	114.69999971041	1148	5.09123492520303E-06	
119.152274699169	-0.0190521240234375	114.799999710158	1149	9.66465377132408E-05	
119.252274698917	-0.0190521240234375	114.899999709905	1150	-5.59725413040724E-05	
119.352274698664	-0.0190460205078125	114.999999709653	1151	0.000122077879495919	
119.452274698412	-0.019049072265625	115.0999997094	1152	-0.000127162900753319	
119.55227469816	-0.0190399169921875	115.199999709148	1153	0.000223809445742518	
119.652274697907	-0.0190460205078125	115.299999708895	1154	-0.000228869641432539	
119.752274697655	-0.01905517578125	115.399999708643	1155	-6.61550075164996E-05	
119.852274697402	-0.01904296875	115.499999708391	1156	0.000310279719997197	
119.95227469715	-0.019036865234375	115.599999708138	1157	-6.10327297181357E-05	
120.052274696897	-0.019036865234375	115.699999707886	1158	-3.05349931295495E-05	
120.152274696645	-0.019049072265625	115.799999707633	1159	-0.000203475545276888	
120.252274696392	-0.0190460205078125	115.899999707381	1160	0.000198427776922472	
120.35227469614	-0.0190460205078125	115.999999707128	1161	-7.6300224463921E-05	
120.452274695887	-0.019036865234375	116.099999706876	1162	0.000178025584318675	
120.552274695635	-0.0190460205078125	116.199999706623	1163	-0.000274665915640071	
120.652274695382	-0.0190460205078125	116.299999706371	1164	0.000137351584271528	
120.75227469513	-0.01904296875	116.399999706118	1165	2.54251299338648E-05	
120.852274694877	-0.0190399169921875	116.499999705866	1166	2.03276867978275E-05	
120.952274694625	-0.0190399169921875	116.599999705613	1167	-2.54437563853571E-05	
121.052274694372	-0.0190399169921875	116.699999705361	1168	1.01576342785847E-05	
121.15227469412	-0.0190521240234375	116.799999705108	1169	-0.000223778406507336	
121.252274693867	-0.01904296875	116.899999704856	1170	0.000310230039758608	
121.352274693615	-0.019036865234375	116.999999704603	1171	-3.55765550921205E-05	
121.452274693362	-0.019036865234375	117.099999704351	1172	-4.07112529501319E-05	
121.55227469311	-0.0190399169921875	117.199999704098	1173	-3.56386444764212E-05	
121.652274692858	-0.019036865234375	117.299999703846	1174	9.15863492991775E-05	
121.752274692605	-0.0190277099609375	117.399999703593	1175	0.000122034420201089	
121.852274692353	-0.0190399169921875	117.499999703341	1176	-0.000320437364280224	
121.9522746921	-0.019036865234375	117.599999703089	1177	0.000228900680667721	
122.052274691848	-0.0190277099609375	117.699999702836	1178	9.15180498850532E-05	
122.152274691595	-0.0190185546875	117.799999702584	1179	7.12152032065205E-05	
122.252274691343	-0.0190277099609375	117.899999702331	1180	-0.00024411229242105	
122.35227469109	-0.01903076171875	117.999999702079	1181	8.13852529972792E-05	
122.452274690838	-0.0190277099609375	118.099999701826	1182	6.10265233262908E-05	
122.552274690585	-0.01903076171875	118.199999701574	1183	-0.000101700519735459	
122.652274690333	-0.01903076171875	118.299999701321	1184	4.57838614238426E-05	
122.75227469008	-0.019024658203125	118.399999701069	1185	0.000101700519735459	
122.852274689828	-0.0190155029296875	118.499999700816	1186	9.66713778325357E-05	
122.952274689575	-0.0190185546875	118.599999700564	1187	-0.000142442819196731	
123.052274689323	-0.019012451171875	118.699999700311	1188	0.000178056623553857	
123.15227468907	-0.0190338134765625	118.799999700059	1189	-0.000473050225991756	
123.252274688818	-0.0190277099609375	118.899999699806	1190	0.000381501129595563	
123.352274688565	-0.0190216064453125	118.999999699554	1191	-3.05225730699021E-05	
123.452274688313	-0.019012451171875	119.099999699301	1192	0.000116955598059576	
123.55227468806	-0.0190155029296875	119.199999699049	1193	-0.000142380726174451	
123.652274687808	-0.0190216064453125	119.299999698796	1194	-4.57776513940189E-05	
123.752274687556	-0.0190093994140625	119.399999698544	1195	0.000284786307020113	
123.852274687303	-0.019024658203125	119.499999698292	1196	-0.000442502816440538	
123.952274687051	-0.0190155029296875	119.599999698039	1197	0.000386579951737076	
124.052274686798	-0.0190185546875	119.699999697787	1198	-0.000213645602343604	
124.152274686546	-0.019000244140625	119.799999697534	1199	0.000401872297516093	
124.252274686293	-0.0190277099609375	119.899999697282	1200	-0.00072736362926662	
