Time (s)	WE(1).Potential (V)	Corrected time (s)	Index	dWE(1).Potential/dt (V/s)	OCP value (V)
1.36674299654931	-0.0344085693359375	0	1	0	-0.0325976801853554
1.46674299629683	-0.0344024658203125	0.0999999997475243	2	6.10202405368909E-05	
1.56674299604435	-0.034393310546875	0.199999999495049	3	0.000106841296656057	
1.66674299579188	-0.034393310546875	0.299999999242573	4	-8.64763860590756E-05	
1.7667429955394	-0.0343780517578125	0.399999998990097	5	0.000310266943415627	
1.86674299528693	-0.0343719482421875	0.499999998737621	6	-6.61611411487684E-05	
1.96674299503445	-0.034356689453125	0.599999998485146	7	0.000259379477938637	
2.06674299478198	-0.034326171875	0.69999999823267	8	0.000401784869609401	
2.1667429945295	-0.034326171875	0.799999997980194	9	-0.000305200548609719	
2.26674299427702	-0.034320068359375	0.899999997727718	10	0.000213657767744735	
2.36674299402455	-0.034307861328125	0.999999997475243	11	0.000152563021401875	
2.46674299377207	-0.0342987060546875	1.09999999722277	12	4.57713904324919E-05	
2.5667429935196	-0.0342803955078125	1.19999999697029	13	0.000269599200692028	
2.66674299326712	-0.0342803955078125	1.29999999671782	14	-0.000183160067535937	
2.76674299301465	-0.0342620849609375	1.39999999646534	15	0.000396780582377687	
2.86674299276217	-0.034246826171875	1.49999999621286	16	6.61363010294735E-05	
2.96674299250969	-0.034246826171875	1.59999999596039	17	-0.000116949253424536	
3.06674299225722	-0.034246826171875	1.69999999570791	18	5.08874545630533E-05	
3.16674299200474	-0.034228515625	1.79999999545544	19	0.000335698248818517	
3.26674299175227	-0.034222412109375	1.89999999520296	20	-0.000101799741969444	
3.36674299149979	-0.0342041015625	1.99999999495049	21	0.0003255654592067	
3.46674299124732	-0.0342071533203125	2.09999999469801	22	-0.000249259115662426	
3.56674299099484	-0.034185791015625	2.19999999444553	23	0.000488373043481261	
3.66674299074236	-0.03419189453125	2.29999999419306	24	-0.000371361675206572	
3.76674299048989	-0.0341766357421875	2.39999999394058	25	0.000422211887780577	
3.86674299023741	-0.0341583251953125	2.49999999368811	26	0.000137314171297476	
3.96674298998494	-0.0341522216796875	2.59999999343563	27	-5.08502016600687E-05	
4.06674298973246	-0.0341461181640625	2.69999999318316	28	0.000101638310297858	
4.16674298947999	-0.034136962890625	2.79999999293068	29	0.000117098265036475	
4.26674298922751	-0.03411865234375	2.8999999926782	30	0.000249134929617867	
4.36674298897503	-0.034100341796875	2.99999999242573	31	0.000152600274304859	
4.46674298872256	-0.0341094970703125	3.09999999217325	32	-0.000320337625453249	
4.56674298847008	-0.0341033935546875	3.19999999192078	33	0.00027969473740086	
4.66674298821761	-0.0340911865234375	3.2999999916683	34	0.000122102574096061	
4.76674298796513	-0.03409423828125	3.39999999141583	35	-0.000178043992491439	
4.86674298771266	-0.034075927734375	3.49999999116335	36	0.000412017019698396	
4.96674298746018	-0.0340606689453125	3.59999999091087	37	5.59165928279981E-05	
5.0667429872077	-0.0340606689453125	3.6999999906584	38	-0.000116998919111211	
5.16674298695523	-0.0340576171875	3.79999999040592	39	0.000106779210909735	
5.26674298670275	-0.034039306640625	3.89999999015345	40	0.000300096900900826	
5.36674298645028	-0.0340423583984375	3.99999998990097	41	-0.000259342225035653	
5.4667429861978	-0.0340301513671875	4.0999999896485	42	0.000320424558594823	
5.56674298594533	-0.0340057373046875	4.19999998939602	43	0.000294906320050359	
5.66674298569285	-0.034002685546875	4.29999998914354	44	-0.000188102276297286	
5.76674298544037	-0.0339996337890625	4.39999998889107	45	0.000101712816103827	
5.8667429851879	-0.03399658203125	4.49999998863859	46	3.04728673654608E-05	
5.96674298493542	-0.033990478515625	4.59999998838612	47	8.64515532157384E-05	
6.06674298468295	-0.033984375	4.69999998813364	48	5.08998709847219E-05	
6.16674298443047	-0.0339874267578125	4.79999998788117	49	-0.000106841296656057	
6.26674298417799	-0.033966064453125	4.89999998762869	50	0.000447605940280482	
6.36674298392552	-0.0339813232421875	4.99999998737621	51	-0.000539136293809861	
6.46674298367304	-0.0339691162109375	5.09999998712374	52	0.000473037245683372	
6.56674298342057	-0.03394775390625	5.19999998687126	53	0.000198284731595777	
6.66674298316809	-0.0339508056640625	5.29999998661879	54	-0.000264396221609786	
6.76674298291562	-0.033929443359375	5.39999998636631	55	0.000498381617944688	
6.86674298266314	-0.0339263916015625	5.49999998611383	56	-0.00020338837930467	
6.96674298241066	-0.03392333984375	5.59999998586136	57	9.15427808649838E-05	
7.06674298215819	-0.033917236328125	5.69999998560888	58	8.64018802531064E-05	
7.16674298190571	-0.0339019775390625	5.79999998535641	59	0.000218773828237318	
7.26674298165324	-0.0338897705078125	5.89999998510393	60	6.6148721089121E-05	
7.36674298140076	-0.0338958740234375	5.99999998485146	61	-0.000203438059543259	
7.46674298114829	-0.033892822265625	6.09999998459898	62	0.000167849124409258	
7.56674298089581	-0.03389892578125	6.1999999843465	63	-0.000167936042998917	
7.66674298064333	-0.03387451171875	6.29999998409403	64	0.000529015902429819	
7.76674298039086	-0.033856201171875	6.39999998384155	65	3.04852856061189E-05	
7.86674298013838	-0.0338623046875	6.49999998358908	66	-0.000244056122028269	
7.96674297988591	-0.0338592529296875	6.5999999833366	67	0.000188102276297286	
8.06674297963343	-0.0338592529296875	6.69999998308413	68	-5.59165928279981E-05	
8.16674297938096	-0.033837890625	6.79999998283165	69	0.000401772471377626	
8.26674297912848	-0.03382568359375	6.89999998257917	70	-2.54313090408687E-05	
8.366742978876	-0.0338287353515625	6.9999999823267	71	-0.00012710687587969	
8.46674297862353	-0.0338287353515625	7.09999998207422	72	7.62690906412899E-05	
8.56674297837105	-0.03382568359375	7.19999998182175	73	4.57589703728445E-05	
8.66674297811858	-0.0338165283203125	7.29999998156927	74	0.000132322282297537	
8.7667429778661	-0.0338104248046875	7.3999999813168	75	1.51495105455979E-05	
8.86674297761363	-0.0337982177734375	7.49999998106432	76	0.000183197320438921	
8.96674297736115	-0.0337982177734375	7.59999998081184	77	-0.000122102574096061	
9.06674297710867	-0.0337860107421875	7.69999998055937	78	0.00026450795121491	
9.1667429768562	-0.0337860107421875	7.79999998030689	79	-0.000142455071909353	
9.26674297660372	-0.0337677001953125	7.89999998005442	80	0.000376353564206511	
9.36674297635125	-0.033770751953125	7.99999997980194	81	-0.000269524694886059	
9.46674297609877	-0.033770751953125	8.09999997954947	82	9.65967556112446E-05	
9.5667429758463	-0.0337554931640625	8.19999997929699	83	0.000269561947789043	
9.66674297559382	-0.033758544921875	8.29999997904451	84	-0.000233960599871352	
9.76674297534134	-0.0337493896484375	8.39999997879204	85	0.000254300684900954	
9.86674297508887	-0.0337432861328125	8.49999997853956	86	-4.97947030453361E-06	
9.96674297483639	-0.03375244140625	8.59999997828709	87	-0.000208591372938827	
10.0667429745839	-0.0337371826171875	8.69999997803461	88	0.000406913371989504	
10.1667429743314	-0.033734130859375	8.79999997778214	89	-0.000152612687088549	
10.266742974079	-0.0337158203125	8.89999997752966	90	0.000350971939042211	
10.3667429738265	-0.0337066650390625	8.99999997727718	91	-3.56137679773383E-05	
10.466742973574	-0.033709716796875	9.09999997702471	92	-0.000101712816103827	
10.5667429733215	-0.0337005615234375	9.19999997677223	93	0.000233873666729778	
10.6667429730691	-0.0337066650390625	9.29999997651976	94	-0.000228832112043165	
10.7667429728166	-0.0336883544921875	9.39999997626728	95	0.000437386217527092	
10.8667429725641	-0.0336944580078125	9.49999997601481	96	-0.000345781358191743	
10.9667429723116	-0.0336761474609375	9.59999997576233	97	0.000467846693936735	
11.0667429720592	-0.0336761474609375	9.69999997550985	98	-0.000233935759752057	
11.1667429718067	-0.03367919921875	9.79999997525738	99	5.10364634465077E-06	
11.2667429715542	-0.0336669921875	9.8999999750049	100	0.000259379477938637	
11.3667429713017	-0.033660888671875	9.99999997475243	101	-4.06801591452677E-05	
11.4667429710493	-0.0336639404296875	10.0999999745	102	-8.6439133156091E-05	
11.5667429707968	-0.0336639404296875	10.1999999742475	103	5.59041764063295E-05	
11.6667429705443	-0.0336578369140625	10.299999973995	104	0.000101675563200843	
11.7667429702918	-0.033636474609375	10.3999999737425	105	0.000320561142871156	
11.8667429700394	-0.033648681640625	10.49999997349	106	-0.000452709587989375	
11.9667429697869	-0.033624267578125	10.5999999732376	107	0.000661127094645053	
12.0667429695344	-0.0336273193359375	10.6999999729851	108	-0.000381444813683629	
12.1667429692819	-0.03363037109375	10.7999999727326	109	6.10823262832128E-05	
12.2667429690295	-0.0336090087890625	10.8999999724801	110	0.000417008908698335	
12.366742968777	-0.033612060546875	10.9999999722277	111	-0.00031534573645331	
12.4667429685245	-0.03360595703125	11.0999999719752	112	0.000218798668356612	
12.566742968272	-0.0336029052734375	11.1999999717227	113	-2.54561437031953E-05	
12.6667429680195	-0.0335968017578125	11.2999999714702	114	9.65719227679074E-05	
12.7667429677671	-0.033599853515625	11.3999999712178	115	-0.000116899580461904	
12.8667429675146	-0.033587646484375	11.4999999709653	116	0.000279731990303844	
12.9667429672621	-0.03359375	11.5999999707128	117	-0.000264582457020879	
13.0667429670096	-0.0335723876953125	11.6999999704603	118	0.00050360948080197	
13.1667429667572	-0.033575439453125	11.7999999702079	119	-0.000325553031871095	
13.2667429665047	-0.0335845947265625	11.8999999699554	120	-6.10202405368909E-05	
13.3667429662522	-0.0335723876953125	11.9999999697029	121	0.000320461811497808	
13.4667429659997	-0.033563232421875	12.0999999694504	122	-5.19056993653066E-06	
13.5667429657473	-0.0335662841796875	12.199999969198	123	-0.000122040481073782	
13.6667429654948	-0.0335479736328125	12.2999999689455	124	0.000401822122512385	
13.7667429652423	-0.0335540771484375	12.399999968693	125	-0.000335698248818517	
13.8667429649898	-0.0335418701171875	12.4999999684405	126	0.000356050732079893	
13.9667429647374	-0.0335418701171875	12.5999999681881	127	-0.00016279514238704	
14.0667429644849	-0.03353271484375	12.6999999679356	128	0.000208467201446183	
14.1667429642324	-0.0335357666015625	12.7999999676831	129	-0.000162733063916676	
14.2667429639799	-0.0335296630859375	12.8999999674306	130	0.000178106085513718	
14.3667429637275	-0.0335235595703125	12.9999999671782	131	3.04728673654608E-05	
14.466742963475	-0.0335235595703125	13.0999999669257	132	-5.08502016600687E-05	
14.5667429632225	-0.0335235595703125	13.1999999666732	133	2.03400795726338E-05	
14.66674296297	-0.033514404296875	13.2999999664207	134	0.000167886377312243	
14.7667429627176	-0.033502197265625	13.3999999661683	135	0.000116924420581199	
14.8667429624651	-0.033489990234375	13.4999999659158	136	0.000111907691461965	
14.9667429622126	-0.03349609375	13.5999999656633	137	-0.000213558421819471	
15.0667429619601	-0.0334991455078125	13.6999999654108	138	5.59041764063295E-05	
15.1667429617077	-0.0334930419921875	13.7999999651583	139	0.000127168968901969	
15.2667429614552	-0.0334869384765625	13.8999999649059	140	3.04852856061189E-05	
15.3667429612027	-0.033477783203125	13.9999999646534	141	0.000116998919111211	
15.4667429609502	-0.0334716796875	14.0999999644009	142	2.5381637897226E-05	
15.5667429606978	-0.0334686279296875	14.1999999641484	143	1.53233577293577E-05	
15.6667429604453	-0.0334686279296875	14.299999963896	144	-1.52488510138937E-05	
15.7667429601928	-0.03348388671875	14.3999999636435	145	-0.000269537093117833	
15.8667429599403	-0.0334686279296875	14.499999963391	146	0.000457788410130888	
15.9667429596878	-0.0334503173828125	14.5999999631385	147	0.00010681646381272	
16.0667429594354	-0.033447265625	14.6999999628861	148	-0.000106866136775352	
16.1667429591829	-0.03345947265625	14.7999999626336	149	-0.000198359237401746	
16.2667429589304	-0.0334564208984375	14.8999999623811	150	0.000208554120035842	
16.3667429586779	-0.033447265625	14.9999999621286	151	9.15427808649838E-05	
16.4667429584255	-0.033441162109375	15.0999999618762	152	1.52115981109091E-05	
16.566742958173	-0.0334228515625	15.1999999616237	153	0.000295067758997902	
16.6667429579205	-0.0334381103515625	15.2999999613712	154	-0.000473012420115992	
16.766742957668	-0.0334320068359375	15.3999999611187	155	0.000350947084371001	
16.8667429574156	-0.0334197998046875	15.4999999608663	156	0.000101750069006812	
16.9667429571631	-0.0334136962890625	15.5999999606138	157	-1.02569638329442E-05	
17.0667429569106	-0.03341064453125	15.6999999603613	158	2.54809801845113E-05	
17.1667429566581	-0.0333892822265625	15.7999999601088	159	0.000376390817109495	
17.2667429564057	-0.0334197998046875	15.8999999598564	160	-0.000798590306658298	
17.3667429561532	-0.0333953857421875	15.9999999596039	161	0.000874772435054183	
17.4667429559007	-0.0334014892578125	16.0999999593514	162	-0.000498406472615898	
17.5667429556482	-0.0333892822265625	16.1999999590989	163	0.000376390817109495	
17.6667429553958	-0.0333892822265625	16.2999999588465	164	-0.00016279514238704	
17.7667429551433	-0.0333984375	16.399999958594	165	-0.000127206221804954	
17.8667429548908	-0.0333892822265625	16.4999999583415	166	0.000274764926871285	
17.9667429546383	-0.0333831787109375	16.599999958089	167	-2.55430677498225E-05	
18.0667429543859	-0.033380126953125	16.6999999578366	168	1.53109394886997E-05	
18.1667429541334	-0.033367919921875	16.7999999575841	169	0.000208504454349168	
18.2667429538809	-0.03338623046875	16.8999999573316	170	-0.00046788394683972	
18.3667429536284	-0.0333648681640625	16.9999999570791	171	0.000645890657324344	
18.466742953376	-0.033367919921875	17.0999999568267	172	-0.00036620837636292	
18.5667429531235	-0.0333587646484375	17.1999999565742	173	0.0002747276739683	
18.666742952871	-0.0333587646484375	17.2999999563217	174	-0.000117048592073843	
18.7667429526185	-0.0333465576171875	17.3999999560692	175	0.000254325510468334	
18.8667429523661	-0.0333465576171875	17.4999999558167	176	-0.000142368138767779	
18.9667429521136	-0.033349609375	17.5999999555643	177	-1.53109394886997E-05	
19.0667429518611	-0.0333465576171875	17.6999999553118	178	9.1617286670953E-05	
19.1667429516086	-0.0333465576171875	17.7999999550593	179	-4.57713904324919E-05	
19.2667429513562	-0.0333282470703125	17.8999999548068	180	0.000345880689565092	
19.3667429511037	-0.033331298828125	17.9999999545544	181	-0.000269586773356423	
19.4667429508512	-0.0333465576171875	18.0999999543019	182	-0.000183060721610673	
19.5667429505987	-0.033331298828125	18.1999999540494	183	0.000447618367616087	
19.6667429503462	-0.0333251953125	18.2999999537969	184	-0.000116998919111211	
19.7667429500938	-0.0333251953125	18.3999999535445	185	-2.03400795726338E-05	
19.8667429498413	-0.033306884765625	18.499999953292	186	0.000356013479176909	
19.9667429495888	-0.0333282470703125	18.5999999530395	187	-0.000605185690801591	
20.0667429493363	-0.0333251953125	18.699999952787	188	0.000366121443221346	
20.1667429490839	-0.0333038330078125	18.7999999525346	189	0.000284823210677132	
20.2667429488314	-0.033306884765625	18.8999999522821	190	-0.000295005680527538	
20.3667429485789	-0.03330078125	18.9999999520296	191	0.000218798668356612	
20.4667429483264	-0.0333038330078125	19.0999999517771	192	-0.000137413502670825	
20.566742948074	-0.033294677734375	19.1999999515247	193	0.000223827810259536	
20.6667429478215	-0.033294677734375	19.2999999512722	194	-0.000116998919111211	
20.766742947569	-0.0333038330078125	19.3999999510197	195	-0.00013736383698415	
20.8667429473165	-0.0332855224609375	19.4999999507672	196	0.000442564371041954	
20.9667429470641	-0.0332916259765625	19.5999999505148	197	-0.000356087984982878	
21.0667429468116	-0.03328857421875	19.6999999502623	198	0.000188226462341845	
21.1667429465591	-0.03328857421875	19.7999999500098	199	-5.60035186936148E-05	
21.2667429463066	-0.0332733154296875	19.8999999497573	200	0.00028988960548304	
21.3667429460542	-0.033270263671875	19.9999999495049	201	-0.000122015648230445	
21.4667429458017	-0.03326416015625	20.0999999492524	202	0.000127131715998985	
21.5667429455492	-0.0332763671875	20.1999999489999	203	-0.000284835638012737	
21.6667429452967	-0.0332550048828125	20.2999999487474	204	0.000554496888071299	
21.7667429450443	-0.033245849609375	20.399999948495	205	-0.000122139826999046	
21.8667429447918	-0.033282470703125	20.4999999482425	206	-0.000706898514181376	
21.9667429445393	-0.0332550048828125	20.59999994799	207	0.000961248821113259	
22.0667429442868	-0.0332489013671875	20.6999999477375	208	-0.000330594601109624	
22.1667429440344	-0.033258056640625	20.799999947485	209	-0.000147533879498951	
22.2667429437819	-0.033251953125	20.8999999472326	210	0.000239089073147625	
22.3667429435294	-0.033245849609375	20.9999999469801	211	1.00831166491844E-05	
22.4667429432769	-0.03323974609375	21.0999999467276	212	6.11692521488294E-05	
22.5667429430245	-0.0332244873046875	21.1999999464751	213	0.000228869364946149	
22.666742942772	-0.033233642578125	21.2999999462227	214	-0.000325528206303716	
22.7667429425195	-0.0332275390625	21.3999999459702	215	0.000269537093117833	
22.866742942267	-0.033233642578125	21.4999999457177	216	-0.00021360810205806	
22.9667429420145	-0.033221435546875	21.5999999454652	217	0.000315358163788915	
23.0667429417621	-0.03323974609375	21.6999999452128	218	-0.000498468580190092	
23.1667429415096	-0.0332275390625	21.7999999449603	219	0.000478078814921901	
23.2667429412571	-0.0332122802734375	21.8999999447078	220	7.62815107009374E-05	
23.3667429410046	-0.0332183837890625	21.9999999444553	221	-0.000249221862759441	
23.4667429407522	-0.03321533203125	22.0999999442029	222	0.000177994326804765	
23.5667429404997	-0.03321533203125	22.1999999439504	223	-5.59041764063295E-05	
23.6667429402472	-0.0332122802734375	22.2999999436979	224	6.61114681861363E-05	
23.7667429399947	-0.0332122802734375	22.3999999434454	225	-3.56510208803229E-05	
23.8667429397423	-0.0332061767578125	22.499999943193	226	0.000122102574096061	
23.9667429394898	-0.033203125	22.5999999429405	227	-1.53233577293577E-05	
24.0667429392373	-0.033209228515625	22.699999942688	228	-0.000127082035760395	
24.1667429389848	-0.033197021484375	22.7999999424355	229	0.000305113615468144	
24.2667429387324	-0.0331878662109375	22.8999999421831	230	5.11606413056143E-06	
24.3667429384799	-0.03319091796875	22.9999999419306	231	-0.000122065313917119	
24.4667429382274	-0.033172607421875	23.0999999416781	232	0.000401760044042021	
24.5667429379749	-0.033197021484375	23.1999999414256	233	-0.000671396497637033	
24.6667429377225	-0.033184814453125	23.2999999411732	234	0.000569658819586039	
24.76674293747	-0.0331787109375	23.3999999409207	235	-0.000111808352812659	
24.8667429372175	-0.0331817626953125	23.4999999406682	236	-8.65508918650448E-05	
24.966742936965	-0.0331695556640625	23.5999999404157	237	0.000279756815871224	
25.0667429367126	-0.0331634521484375	23.6999999401633	238	-4.06056533392984E-05	
25.1667429364601	-0.0331787109375	23.7999999399108	239	-0.000310266943415627	
25.2667429362076	-0.0331695556640625	23.8999999396583	240	0.00036618352169171	
25.3667429359551	-0.0331787109375	23.9999999394058	241	-0.000325416447594762	
25.4667429357027	-0.033160400390625	24.0999999391533	242	0.000472987565444782	
25.5667429354502	-0.033154296875	24.1999999389009	243	-0.000132309854961932	
25.6667429351977	-0.033148193359375	24.2999999386484	244	0.000101849414932076	
25.7667429349452	-0.0331573486328125	24.3999999383959	245	-0.000218761415453628	
25.8667429346928	-0.033154296875	24.4999999381434	246	0.000183097974513657	
25.9667429344403	-0.033135986328125	24.599999937891	247	0.000269586773356423	
26.0667429341878	-0.0331512451171875	24.6999999376385	248	-0.000483244541101158	
26.1667429339353	-0.033154296875	24.799999937386	249	0.000183097974513657	
26.2667429336828	-0.0331298828125	24.8999999371335	250	0.000432406755862758	
26.3667429334304	-0.033135986328125	24.9999999368811	251	-0.000407025130698457	
26.4667429331779	-0.0331390380859375	25.0999999366286	252	9.66712614172138E-05	
26.5667429329254	-0.0331451416015625	25.1999999363761	253	-9.65719227679074E-05	
26.6667429326729	-0.0331329345703125	25.2999999361236	254	0.000284785957774147	
26.7667429324205	-0.033123779296875	25.3999999358712	255	5.07881122757681E-06	
26.866742932168	-0.0331085205078125	25.4999999356187	256	0.000213670180528425	
26.9667429319155	-0.0331207275390625	25.5999999353662	257	-0.000371312024071813	
27.066742931663	-0.0331298828125	25.6999999351137	258	2.54437272815267E-05	
27.1667429314106	-0.033111572265625	25.7999999348613	259	0.000401747616706416	
27.2667429311581	-0.03311767578125	25.8999999346088	260	-0.00035596382804215	
27.3667429309056	-0.0331146240234375	25.9999999343563	261	0.00018818920943886	
27.4667429306531	-0.033099365234375	26.0999999341038	262	0.000223765717237256	
27.5667429304007	-0.033111572265625	26.1999999338514	263	-0.000391676934668794	
27.6667429301482	-0.033111572265625	26.2999999335989	264	0.000193305269931443	
27.7667429298957	-0.0331024169921875	26.3999999333464	265	0.000127193794469349	
27.8667429296432	-0.0331024169921875	26.4999999330939	266	-0.000106791630969383	
27.9667429293908	-0.033099365234375	26.5999999328415	267	8.64763860590756E-05	
28.0667429291383	-0.0331085205078125	26.699999932589	268	-0.000203524978132918	
28.1667429288858	-0.033087158203125	26.7999999323365	269	0.000508750381413847	
28.2667429286333	-0.0330963134765625	26.899999932084	270	-0.000447643193183467	
28.3667429283809	-0.033087158203125	26.9999999318316	271	0.000345917942468077	
28.4667429281284	-0.0330902099609375	27.0999999315791	272	-0.000193342522834428	
28.5667429278759	-0.0330963134765625	27.1999999313266	273	-4.57465539511759E-05	
28.6667429276234	-0.0330718994140625	27.2999999310741	274	0.000508651020936668	
28.766742927371	-0.033087158203125	27.3999999308217	275	-0.000584895256906748	
28.8667429271185	-0.0330841064453125	27.4999999305692	276	0.000315358163788915	
28.966742926866	-0.0330780029296875	27.5999999303167	277	2.53568032348994E-05	
29.0667429266135	-0.0330780029296875	27.6999999300642	278	-6.09705712122377E-05	
29.1667429263611	-0.0330718994140625	27.7999999298117	279	0.000132309854961932	
29.2667429261086	-0.033062744140625	27.8999999295593	280	9.65719227679074E-05	
29.3667429258561	-0.033062744140625	27.9999999293068	281	-8.64143003127538E-05	
29.4667429256036	-0.0330657958984375	28.0999999290543	282	-2.5406474378542E-05	
29.5667429253512	-0.033074951171875	28.1999999288018	283	-0.000132309854961932	
29.6667429250987	-0.0330596923828125	28.2999999285494	284	0.000376365991542116	
29.7667429248462	-0.033056640625	28.3999999282969	285	-0.00015253818128258	
29.8667429245937	-0.0330596923828125	28.4999999280444	286	-4.07546649512369E-05	
29.9667429243412	-0.0330535888671875	28.5999999277919	287	0.000157728747581132	
30.0667429240888	-0.033038330078125	28.6999999275395	288	0.000198309571715072	
30.1667429238363	-0.0330413818359375	28.799999927287	289	-0.00021360810205806	
30.2667429235838	-0.033050537109375	28.8999999270345	290	-8.13727383501828E-05	
30.3667429233313	-0.03304443359375	28.999999926782	291	0.000208504454349168	
30.4667429230789	-0.0330413818359375	29.0999999265296	292	-4.57217174698599E-05	
30.5667429228264	-0.033038330078125	29.1999999262771	293	4.06801591452677E-05	
30.6667429225739	-0.0330474853515625	29.2999999260246	294	-0.000193342522834428	
30.7667429223214	-0.0330413818359375	29.3999999257721	295	0.000229005963774398	
30.866742922069	-0.0330169677734375	29.4999999255197	296	0.000345793785527349	
30.9667429218165	-0.033038330078125	29.5999999252672	297	-0.000656035903375596	
31.066742921564	-0.0330169677734375	29.6999999250147	298	0.000722134951502085	
31.1667429213115	-0.0330169677734375	29.7999999247622	299	-0.000320362480124459	
31.2667429210591	-0.0330169677734375	29.8999999245098	300	7.12151158950292E-05	
31.3667429208066	-0.0330169677734375	29.9999999242573	301	1.24176313676116E-08	
31.4667429205541	-0.0330291748046875	30.0999999240048	302	-0.000223802970140241	
31.5667429203016	-0.0330047607421875	30.1999999237523	303	0.000589998904615641	
31.6667429200492	-0.0330169677734375	30.2999999234999	304	-0.000549343589227647	
31.7667429197967	-0.03299560546875	30.3999999232474	305	0.000615541997831315	
31.8667429195442	-0.033001708984375	30.4999999229949	306	-0.00040188423008658	
31.9667429192917	-0.0330108642578125	30.5999999227424	307	-2.53195503319148E-05	
32.0667429190393	-0.03299560546875	30.69999992249	308	0.000366195949027315	
32.1667429187868	-0.033001708984375	30.7999999222375	309	-0.000320461811497808	
32.2667429185343	-0.03302001953125	30.899999921985	310	-0.000213558421819471	
32.3667429182818	-0.0330078125	30.9999999217325	311	0.000417058559833094	
32.4667429180294	-0.03299560546875	31.09999992148	312	2.03276631509652E-05	
32.5667429177769	-0.0329986572265625	31.1999999212276	313	-0.000157703922013752	
32.6667429175244	-0.0329986572265625	31.2999999209751	314	7.62815107009374E-05	
32.7667429172719	-0.0329925537109375	31.3999999207226	315	0.000101750069006812	
32.8667429170195	-0.0330047607421875	31.4999999204701	316	-0.000295067758997902	
32.966742916767	-0.0329925537109375	31.5999999202177	317	0.000386610539862886	
33.0667429165145	-0.032977294921875	31.6999999199652	318	9.65967556112446E-05	
33.166742916262	-0.0329925537109375	31.7999999197127	319	-0.000417083414504305	
33.2667429160095	-0.0329833984375	31.8999999194602	320	0.000396656396333128	
33.3667429157571	-0.0329803466796875	31.9999999192078	321	-0.000101638310297858	
33.4667429155046	-0.0329833984375	32.0999999189553	322	-6.11071664025076E-05	
33.5667429152521	-0.0329833984375	32.1999999187028	323	4.57713904324919E-05	
33.6667429149996	-0.0329833984375	32.2999999184503	324	-1.02072926893015E-05	
33.7667429147472	-0.032965087890625	32.3999999181979	325	0.000335747929057106	
33.8667429144947	-0.032965087890625	32.4999999179454	326	-0.00021360810205806	
33.9667429142422	-0.0329620361328125	32.5999999176929	327	0.000116998919111211	
34.0667429139897	-0.0329620361328125	32.6999999174404	328	-3.56386008206755E-05	
34.1667429137373	-0.0329559326171875	32.799999917188	329	0.000122015648230445	
34.2667429134848	-0.0329620361328125	32.8999999169355	330	-0.000182998628588393	
34.3667429132323	-0.03297119140625	32.999999916683	331	-7.6405682193581E-05	
34.4667429129798	-0.032952880859375	33.0999999164305	332	0.000422211887780577	
34.5667429127274	-0.0329498291015625	33.1999999161781	333	-0.000188164369319566	
34.6667429124749	-0.0329498291015625	33.2999999159256	334	2.54437272815267E-05	
34.7667429122224	-0.0329498291015625	33.3999999156731	335	1.02072926893015E-05	
34.8667429119699	-0.0329559326171875	33.4999999154206	336	-0.00011193253158126	
34.9667429117175	-0.0329376220703125	33.5999999151682	337	0.000406925770221278	
35.066742911465	-0.032952880859375	33.6999999149157	338	-0.000513767066877335	
35.1667429112125	-0.0329376220703125	33.7999999146632	339	0.00051877141231671	
35.26674291096	-0.0329315185546875	33.8999999144107	340	-0.000116949253424536	
35.3667429107076	-0.03294677734375	33.9999999141583	341	-0.00030013415380381	
35.4667429104551	-0.032952880859375	34.0999999139058	342	8.64018802531064E-05	
35.5667429102026	-0.0329559326171875	34.1999999136533	343	-3.55765150743537E-05	
35.6667429099501	-0.032940673828125	34.2999999134008	344	0.000295030506094918	
35.7667429096977	-0.0329254150390625	34.3999999131483	345	9.1567613708321E-05	
35.8667429094452	-0.03292236328125	34.4999999128959	346	-7.12151158950292E-05	
35.9667429091927	-0.032928466796875	34.5999999126434	347	-9.6646421297919E-05	
36.0667429089402	-0.032928466796875	34.6999999123909	348	8.13727383501828E-05	
36.1667429086878	-0.0329315185546875	34.7999999121384	349	-7.62690906412899E-05	
36.2667429084353	-0.0329315185546875	34.899999911886	350	3.55640950147063E-05	
36.3667429081828	-0.0329193115234375	34.9999999116335	351	0.00021363292762544	
36.4667429079303	-0.0329071044921875	35.099999911381	352	8.13479055068456E-05	
36.5667429076778	-0.032928466796875	35.1999999111285	353	-0.000493340077809989	
36.6667429074254	-0.0329193115234375	35.2999999108761	354	0.000457788410130888	
36.7667429071729	-0.0329315185546875	35.3999999106236	355	-0.000401809724280611	
36.8667429069204	-0.03289794921875	35.4999999103711	356	0.000788320903666317	
36.9667429066679	-0.0329010009765625	35.5999999101186	357	-0.000488236430101097	
37.0667429064155	-0.0329071044921875	35.6999999098662	358	3.55020092683844E-05	
37.166742906163	-0.0329193115234375	35.7999999096137	359	-0.000162670970894396	
37.2667429059105	-0.032904052734375	35.8999999093612	360	0.000401822122512385	
37.366742905658	-0.0329071044921875	35.9999999091087	361	-0.000274702848400921	
37.4667429054056	-0.0328948974609375	36.0999999088563	362	0.000310266943415627	
37.5667429051531	-0.0329071044921875	36.1999999086038	363	-0.000376378418877721	
37.6667429049006	-0.0328948974609375	36.2999999083513	364	0.000406876119086519	
37.7667429046481	-0.03289794921875	36.3999999080988	365	-0.000239002154557966	
37.8667429043957	-0.0329010009765625	36.4999999078464	366	2.03400795726338E-05	
37.9667429041432	-0.0328887939453125	36.5999999075939	367	0.000249209435423836	
38.0667429038907	-0.03289794921875	36.6999999073414	368	-0.000320424558594823	
38.1667429036382	-0.0329010009765625	36.7999999070889	369	9.15800337679684E-05	
38.2667429033858	-0.032891845703125	36.8999999068365	370	0.000172828600625508	
38.3667429031333	-0.0328826904296875	36.999999906584	371	5.09122874063905E-05	
38.4667429028808	-0.0328948974609375	37.0999999063315	372	-0.000300121726468205	
38.5667429026283	-0.0328826904296875	37.199999906079	373	0.000396792980609462	
38.6667429023759	-0.03287353515625	37.2999999058266	374	-1.52488510138937E-05	
38.7667429021234	-0.0328887939453125	37.3999999055741	375	-0.000345843465765938	
38.8667429018709	-0.0328704833984375	37.4999999053216	376	0.000544239941518754	
38.9667429016184	-0.0328826904296875	37.5999999050691	377	-0.000488335790578276	
39.066742901366	-0.0328765869140625	37.6999999048167	378	0.000315333338221535	
39.1667429011135	-0.0328704833984375	37.7999999045642	379	3.72528958791918E-08	
39.266742900861	-0.032861328125	37.8999999043117	380	0.000116874747618567	
39.3667429006085	-0.0328704833984375	37.9999999040592	381	-0.00025423857732676	
39.4667429003561	-0.032861328125	38.0999999038067	382	0.000305063964333385	
39.5667429001036	-0.032867431640625	38.1999999035543	383	-0.000249172182520851	
39.6667428998511	-0.0328643798828125	38.2999999033018	384	0.000157641828991473	
39.7667428995986	-0.0328704833984375	38.3999999030493	385	-0.000167762205819599	
39.8667428993462	-0.0328643798828125	38.4999999027968	386	0.000193168671103194	
39.9667428990937	-0.0328521728515625	38.5999999025444	387	0.000132334695081227	
40.0667428988412	-0.032861328125	38.6999999022919	388	-0.000289988936856389	
40.1667428985887	-0.032843017578125	38.7999999020394	389	0.000483256968436763	
40.2667428983362	-0.032855224609375	38.8999999017869	390	-0.000467946025310084	
40.3667428980838	-0.032867431640625	38.9999999015345	391	-2.03897507162765E-05	
40.4667428978313	-0.0328460693359375	39.099999901282	392	0.000493352476041764	
40.5667428975788	-0.0328582763671875	39.1999999010295	393	-0.000513655308168381	
40.6667428973263	-0.03284912109375	39.299999900777	394	0.000381419959012419	
40.7667428970739	-0.0328369140625	39.3999999005246	395	7.63684292905964E-05	
40.8667428968214	-0.0328460693359375	39.4999999002721	396	-0.000279818894341588	
40.9667428965689	-0.0328521728515625	39.5999999000196	397	3.56261843990069E-05	
41.0667428963164	-0.0328521728515625	39.6999998997671	398	4.06801591452677E-05	
41.166742896064	-0.0328460693359375	39.7999998995147	399	9.1517940745689E-05	
41.2667428958115	-0.0328399658203125	39.8999998992622	400	4.07298321078997E-05	
41.366742895559	-0.0328460693359375	39.9999998990097	401	-0.000162869648193009	
41.4667428953065	-0.032830810546875	40.0999998987572	402	0.000371312024071813	
41.5667428950541	-0.0328338623046875	40.1999998985048	403	-0.000254325510468334	
41.6667428948016	-0.0328338623046875	40.2999998982523	404	8.65012189024128E-05	
41.7667428945491	-0.03282470703125	40.3999998979998	405	0.000157728747581132	
41.8667428942966	-0.03282470703125	40.4999998977473	406	-0.000106878549559042	
41.9667428940442	-0.0328338623046875	40.5999998974949	407	-0.00013737624976784	
42.0667428937917	-0.032830810546875	40.6999998972424	408	0.000162807569722645	
42.1667428935392	-0.032818603515625	40.7999998969899	409	0.000157641828991473	
42.2667428932867	-0.0328155517578125	40.8999998967374	410	-7.62815107009374E-05	
42.3667428930343	-0.0328216552734375	40.999999896485	411	-0.00010681646381272	
42.4667428927818	-0.03282470703125	41.0999998962325	412	2.54437272815267E-05	
42.5667428925293	-0.0328216552734375	41.19999989598	413	7.11530301487073E-05	
42.6667428922768	-0.0328125	41.2999998957275	414	0.000122139826999046	
42.7667428920244	-0.032818603515625	41.399999895475	415	-0.000208578960155137	
42.8667428917719	-0.03280029296875	41.4999998952226	416	0.000437448325101286	
42.9667428915194	-0.0328155517578125	41.5999998949701	417	-0.000513767066877335	
43.0667428912669	-0.0328155517578125	41.6999998947176	418	0.000239026980125345	
43.1667428910145	-0.03280029296875	41.7999998944651	419	0.000228856952162459	
43.266742890762	-0.032806396484375	41.8999998942127	420	-0.000289902032818645	
43.3667428905095	-0.03280029296875	41.9999998939602	421	0.000233923346968368	
43.466742890257	-0.03280029296875	42.0999998937077	422	-9.1567613708321E-05	
43.5667428900045	-0.032794189453125	42.1999998934552	423	0.000132272602058947	
43.6667428897521	-0.032806396484375	42.2999998932028	424	-0.000295067758997902	
43.7667428894996	-0.0328033447265625	42.3999998929503	425	0.000218724162550643	
43.8667428892471	-0.0327880859375	42.4999998926978	426	0.000203487725229934	
43.9667428889946	-0.0327911376953125	42.5999998924453	427	-0.000223765717237256	
44.0667428887422	-0.0327911376953125	42.6999998921929	428	8.6439133156091E-05	
44.1667428884897	-0.03280029296875	42.7999998919404	429	-0.000178056419827044	
44.2667428882372	-0.0327880859375	42.8999998916879	430	0.000330607028445229	
44.3667428879847	-0.0327850341796875	42.9999998914354	431	-0.000116974086267874	
44.4667428877323	-0.0327728271484375	43.099999891183	432	0.000228856952162459	
44.5667428874798	-0.0327850341796875	43.1999998909305	433	-0.000356025906512514	
44.6667428872273	-0.0327972412109375	43.299999890678	434	-4.06553263019305E-05	
44.7667428869748	-0.0327972412109375	43.3999998904255	435	0.000101737656223122	
44.8667428867224	-0.0327789306640625	43.4999998901731	436	0.000295018078759313	
44.9667428864699	-0.0327728271484375	43.5999998899206	437	-0.000101799741969444	
45.0667428862174	-0.0327789306640625	43.6999998896681	438	-0.000121965975267813	
45.1667428859649	-0.032781982421875	43.7999998894156	439	3.55516785930377E-05	
45.2667428857125	-0.0327789306640625	43.8999998891632	440	7.12399487383664E-05	
45.36674288546	-0.0327667236328125	43.9999998889107	441	0.000178006739588454	
45.4667428852075	-0.0327667236328125	44.0999998886582	442	-0.000132198110804893	
45.566742884955	-0.0327728271484375	44.1999998884057	443	-7.12399487383664E-05	
45.6667428847026	-0.032769775390625	44.2999998881533	444	0.000127181381685659	
45.7667428844501	-0.032763671875	44.3999998879008	445	5.59538457309827E-05	
45.8667428841976	-0.0327728271484375	44.4999998876483	446	-0.000228968710871413	
45.9667428839451	-0.0327606201171875	44.5999998873958	447	0.00035104644484818	
46.0667428836927	-0.03275146484375	44.6999998871433	448	-5.07881122757681E-06	
46.1667428834402	-0.032757568359375	44.7999998868909	449	-0.000178056419827044	
46.2667428831877	-0.0327667236328125	44.8999998866384	450	-6.60121295368299E-05	
46.3667428829352	-0.032757568359375	44.9999998863859	451	0.00025423857732676	
46.4667428826828	-0.0327606201171875	45.0999998861334	452	-0.000193205924006179	
46.5667428824303	-0.0327484130859375	45.199999885881	453	0.000289902032818645	
46.6667428821778	-0.0327423095703125	45.2999998856285	454	-4.07670850108843E-05	
46.7667428819253	-0.0327606201171875	45.399999885376	455	-0.000366121443221346	
46.8667428816728	-0.032745361328125	45.4999998851235	456	0.000513680162839592	
46.9667428814204	-0.0327545166015625	45.5999998848711	457	-0.000406938197556883	
47.0667428811679	-0.0327423095703125	45.6999998846186	458	0.000381469639251009	
47.1667428809154	-0.0327484130859375	45.7999998843661	459	-0.000284761132206768	
47.2667428806629	-0.0327392578125	45.8999998841136	460	0.00027962023159489	
47.3667428804105	-0.032733154296875	45.9999998838612	461	-1.51867634485825E-05	
47.466742880158	-0.032733154296875	46.0999998836087	462	-4.07422485295683E-05	
47.5667428799055	-0.0327392578125	46.1999998833562	463	-9.1617286670953E-05	
47.666742879653	-0.0327362060546875	46.2999998831037	464	0.000127243474707939	
47.7667428794006	-0.0327362060546875	46.3999998828513	465	-5.59414293093141E-05	
47.8667428791481	-0.032733154296875	46.4999998825988	466	6.61363010294735E-05	
47.9667428788956	-0.0327392578125	46.5999998823463	467	-0.000147595972521231	
48.0667428786431	-0.032720947265625	46.6999998820938	468	0.000417157920310274	
48.1667428783907	-0.0327423095703125	46.7999998818414	469	-0.000625662331003696	
48.2667428781382	-0.032733154296875	46.8999998815889	470	0.000478202971862629	
48.3667428778857	-0.0327239990234375	46.9999998813364	471	-1.03066340670921E-05	
48.4667428776332	-0.032720947265625	47.0999998810839	472	-2.0253157344996E-05	
48.5667428773808	-0.0327117919921875	47.1999998808315	473	0.000162708223797381	
48.6667428771283	-0.032733154296875	47.299999880579	474	-0.000488186749862507	
48.7667428768758	-0.0327178955078125	47.3999998803265	475	0.000559414271265268	
48.8667428766233	-0.0327301025390625	47.499999880074	476	-0.000473049673018977	
48.9667428763709	-0.032733154296875	47.5999998798216	477	0.00013737624976784	
49.0667428761184	-0.03272705078125	47.6999998795691	478	0.000106729545223061	
49.1667428758659	-0.0327301025390625	47.7999998793166	479	-0.000137239665491506	
49.2667428756134	-0.0327239990234375	47.8999998790641	480	0.000167774618603289	
49.366742875361	-0.03271484375	47.9999998788117	481	8.64887988427654E-05	
49.4667428751085	-0.03271484375	48.0999998785592	482	-8.64763860590756E-05	
49.566742874856	-0.03270263671875	48.1999998783067	483	0.000254337937803939	
49.6667428746035	-0.0327117919921875	48.2999998780542	484	-0.000310341449221596	
49.7667428743511	-0.032696533203125	48.3999998778017	485	0.00042731553548947	
49.8667428740986	-0.0326995849609375	48.4999998775493	486	-0.00026445830008015	
49.9667428738461	-0.0327056884765625	48.5999998772968	487	-2.54188908002106E-05	
50.0667428735936	-0.0327056884765625	48.6999998770443	488	6.10574934398755E-05	
50.1667428733412	-0.0326873779296875	48.7999998767918	489	0.000315358163788915	
50.2667428730887	-0.03270263671875	48.8999998765394	490	-0.000493402185384184	
50.3667428728362	-0.0327056884765625	48.9999998762869	491	0.000183110387297347	
50.4667428725837	-0.0326995849609375	49.0999998760344	492	9.6646421297919E-05	
50.5667428723312	-0.03267822265625	49.1999998757819	493	0.000310229690512642	
50.6667428720788	-0.03271484375	49.2999998755295	494	-0.000900253420695663	
50.7667428718263	-0.0326995849609375	49.399999875277	495	0.000778188114054501	
50.8667428715738	-0.0327178955078125	49.4999998750245	496	-0.000635757867712528	
50.9667428713213	-0.03271484375	49.599999874772	497	0.000320374878356233	
51.0667428710689	-0.0326812744140625	49.6999998745196	498	0.000518808665219694	
51.1667428708164	-0.0326904296875	49.7999998742671	499	-0.000549219432286918	
51.2667428705639	-0.0326934814453125	49.8999998740146	500	0.000162670970894396	
51.3667428703114	-0.0326873779296875	49.9999998737621	501	0.000117036172014195	
51.466742870059	-0.032696533203125	50.0999998735097	502	-0.00024932119413279	
51.5667428698065	-0.032684326171875	50.1999998732572	503	0.00035104644484818	
51.666742869554	-0.03267822265625	50.2999998730047	504	-6.11071664025076E-05	
51.7667428693015	-0.032684326171875	50.3999998727522	505	-0.000142392978887074	
51.8667428690491	-0.0326873779296875	50.4999998724998	506	3.56137679773383E-05	
51.9667428687966	-0.0326812744140625	50.5999998722473	507	0.000127082035760395	
52.0667428685441	-0.03267822265625	50.6999998719948	508	-2.5381637897226E-05	
52.1667428682916	-0.03267822265625	50.7999998717423	509	-1.53109394886997E-05	
52.2667428680392	-0.03267822265625	50.8999998714899	510	1.01452051239903E-05	
52.3667428677867	-0.0326690673828125	50.9999998712374	511	0.000167861537192948	
52.4667428675342	-0.0326873779296875	51.0999998709849	512	-0.000442489865235984	
52.5667428672817	-0.032672119140625	51.1999998707324	513	0.000523850205354393	
52.6667428670293	-0.0326690673828125	51.29999987048	514	-0.000183135227416642	
52.7667428667768	-0.032666015625	51.3999998702275	515	7.12151158950292E-05	
52.8667428665243	-0.0326690673828125	51.499999869975	516	-8.13230653875507E-05	
52.9667428662718	-0.032659912109375	51.5999998697225	517	0.00021363292762544	
53.0667428660194	-0.0326812744140625	51.69999986947	518	-0.000508663419168442	
53.1667428657669	-0.032672119140625	51.7999998692176	519	0.000447680446086451	
53.2667428655144	-0.032659912109375	51.8999998689651	520	4.57217174698599E-05	
53.3667428652619	-0.032659912109375	51.9999998687126	521	-0.000111845605715644	
53.4667428650095	-0.0326629638671875	52.0999998684601	522	-1.53109394886997E-05	
53.566742864757	-0.0326446533203125	52.1999998682077	523	0.000371361675206572	
53.6667428645045	-0.032666015625	52.2999998679552	524	-0.000615492288488895	
53.766742864252	-0.032666015625	52.3999998677027	525	0.000310316594550386	
53.8667428639995	-0.0326507568359375	52.4999998674502	526	0.000208541707252152	
53.9667428637471	-0.032647705078125	52.5999998671978	527	-0.000122077733976766	
54.0667428634946	-0.0326416015625	52.6999998669453	528	0.000127168968901969	
54.1667428632421	-0.0326507568359375	52.7999998666928	529	-0.000228968710871413	
54.2667428629896	-0.0326385498046875	52.8999998664403	530	0.00035104644484818	
54.3667428627372	-0.0326507568359375	52.9999998661879	531	-0.000396780582377687	
54.4667428624847	-0.0326507568359375	53.0999998659354	532	0.000183147640200332	
54.5667428622322	-0.03265380859375	53.1999998656829	533	-9.6609175670892E-05	
54.6667428619797	-0.0326385498046875	53.2999998654304	534	0.00031532091088593	
54.7667428617273	-0.0326385498046875	53.399999865178	535	-0.00018818920943886	
54.8667428614748	-0.0326324462890625	53.4999998649255	536	0.000162720636581071	
54.9667428612223	-0.032635498046875	53.599999864673	537	-0.000127156541566364	
55.0667428609698	-0.032647705078125	53.6999998644205	538	-0.000167836711625569	
55.1667428607174	-0.0326507568359375	53.7999998641681	539	7.62690906412899E-05	
55.2667428604649	-0.032635498046875	53.8999998639156	540	0.000274690421065316	
55.3667428602124	-0.03262939453125	53.9999998636631	541	-7.62194249546155E-05	
55.4667428599599	-0.03265380859375	54.0999998634106	542	-0.000467983278213069	
55.5667428597075	-0.032623291015625	54.1999998631582	543	0.000864676898345351	
55.666742859455	-0.0326385498046875	54.2999998629057	544	-0.000717167858965695	
55.7667428592025	-0.032635498046875	54.3999998626532	545	0.000335673423251137	
55.86674285895	-0.0326263427734375	54.4999998624007	546	8.14596642157994E-05	
55.9667428586976	-0.0326263427734375	54.5999998621483	547	-9.67085143201984E-05	
56.0667428584451	-0.0326324462890625	54.6999998618958	548	-8.1447244156152E-05	
56.1667428581926	-0.0326324462890625	54.7999998616433	549	7.12151158950292E-05	
56.2667428579401	-0.0326141357421875	54.8999998613908	550	0.000315395416691899	
56.3667428576877	-0.03262939453125	54.9999998611383	551	-0.000493352476041764	
56.4667428574352	-0.0326324462890625	55.0999998608859	552	0.000183060721610673	
56.5667428571827	-0.0326171875	55.1999998606334	553	0.000264470727415755	
56.6667428569302	-0.0326141357421875	55.2999998603809	554	-0.000132198110804893	
56.7667428566778	-0.032623291015625	55.3999998601284	555	-0.000152612687088549	
56.8667428564253	-0.0326202392578125	55.499999859876	556	0.000172927931998856	
56.9667428561728	-0.0326080322265625	55.5999998596235	557	0.000157728747581132	
57.0667428559203	-0.0326202392578125	55.699999859371	558	-0.000356087984982878	
57.1667428556678	-0.032611083984375	55.7999998591185	559	0.000351034017512575	
57.2667428554154	-0.032611083984375	55.8999998588661	560	-0.000147571132401936	
57.3667428551629	-0.0326202392578125	55.9999998586136	561	-0.00013737624976784	
57.4667428549104	-0.0326141357421875	56.0999998583611	562	0.000218835921259597	
57.5667428546579	-0.0326080322265625	56.1999998581086	563	1.0120369552169E-05	
57.6667428544055	-0.0326080322265625	56.2999998578562	564	-5.08502016600687E-05	
57.766742854153	-0.0326080322265625	56.3999998576037	565	2.03400795726338E-05	
57.8667428539005	-0.0326019287109375	56.4999998573512	566	0.000111858025775291	
57.966742853648	-0.03260498046875	56.5999998570987	567	-0.000127156541566364	
58.0667428533956	-0.0326141357421875	56.6999998568463	568	-0.000111808352812659	
58.1667428531431	-0.0326019287109375	56.7999998565938	569	0.000320350052788854	
58.2667428528906	-0.03260498046875	56.8999998563413	570	-0.000228869364946149	
58.3667428526381	-0.0325897216796875	56.9999998560888	571	0.000356063159415498	
58.4667428523857	-0.032598876953125	57.0999998558364	572	-0.00035596382804215	
58.5667428521332	-0.03260498046875	57.1999998555839	573	4.57093010481913E-05	
58.6667428518807	-0.03260498046875	57.2999998553314	574	4.07422485295683E-05	
58.7667428516282	-0.0326019287109375	57.3999998550789	575	3.55889314960223E-05	
58.8667428513758	-0.0325927734375	57.4999998548265	576	0.000132235363707878	
58.9667428511233	-0.0326080322265625	57.599999854574	577	-0.000376390817109495	
59.0667428508708	-0.032574462890625	57.6999998543215	578	0.000823959533590823	
59.1667428506183	-0.0325927734375	57.799999854069	579	-0.000778138462919742	
59.2667428503659	-0.0325927734375	57.8999998538166	580	0.000325490953400731	
59.3667428501134	-0.0325958251953125	57.9999998535641	581	-0.000116961673484184	
59.4667428498609	-0.0325836181640625	58.0999998533116	582	0.000259379477938637	
59.5667428496084	-0.0325897216796875	58.1999998530591	583	-0.000264495552983135	
59.666742849356	-0.0325927734375	58.2999998528067	584	5.60159351152834E-05	
59.7667428491035	-0.032586669921875	58.3999998525542	585	0.000127082035760395	
59.866742848851	-0.0325897216796875	58.4999998523017	586	-0.000137326584081165	
59.9667428485985	-0.0325927734375	58.5999998520492	587	4.96705254704466E-08	
60.0667428483461	-0.032574462890625	58.6999998517967	588	0.000361079873982817	
60.1667428480936	-0.032568359375	58.7999998515443	589	-0.000111795932753012	
60.2667428478411	-0.0325927734375	58.8999998512918	590	-0.000457813235698268	
60.3667428475886	-0.0325775146484375	58.9999998510393	591	0.000584932509809732	
60.4667428473362	-0.0325714111328125	59.0999998507868	592	-0.000147546292282641	
60.5667428470837	-0.03255615234375	59.1999998505344	593	0.000259379477938637	
60.6667428468312	-0.032574462890625	59.2999998502819	594	-0.000493377330712974	
60.7667428465787	-0.03258056640625	59.3999998500294	595	0.000152662352775224	
60.8667428463262	-0.0325836181640625	59.4999998497769	596	-4.58210597571451E-05	
60.9667428460738	-0.032562255859375	59.5999998495245	597	0.000406913371989504	
61.0667428458213	-0.0325775146484375	59.699999849272	598	-0.000539136293809861	
61.1667428455688	-0.0325775146484375	59.7999998490195	599	0.000249221862759441	
61.2667428453163	-0.0325775146484375	59.899999848767	600	-5.08626180817373E-05	
