Time (s);WE(1).Potential (V);Corrected time (s);Index;dWE(1).Potential/dt (V/s);OCP value (V)
4.36480098897994;-0.00397644042968751;0;1;0;-0.00436188940908395
4.46480098872746;-0.00397338867187499;0.0999999997475243;2;3.05194698739797E-05;
4.56480098847499;-0.003985595703125;0.199999999495049;3;-0.000198369569261558;
4.66480098822251;-0.00398864746093749;0.299999999242573;4;9.66480947681703E-05;
4.76480098797003;-0.0039825439453125;0.399999998990097;5;0.000106802624941338;
4.86480098771756;-0.0039825439453125;0.499999998737621;6;-8.1375939771533E-05;
4.96480098746508;-0.0039947509765625;0.599999998485146;7;-0.000203446063096635;
5.06480098721261;-0.003985595703125;0.69999999823267;8;0.000310254894429818;
5.16480098696013;-0.00399169921875001;0.799999997980194;9;-0.000259398424532264;
5.26480098670766;-0.0039825439453125;0.899999997727718;10;0.000269577780272812;
5.36480098645518;-0.0039947509765625;0.999999997475243;11;-0.000350950605934486;
5.4648009862027;-0.003985595703125;1.09999999722277;12;0.000340772792696953;
5.56480098595023;-0.00400695800781251;1.19999999697029;13;-0.000539143162313849;
5.66480098569775;-0.00399169921875001;1.29999999671782;14;0.000559492560569197;
5.76480098544528;-0.003997802734375;1.39999999646534;15;-0.000361120677553117;
5.8648009851928;-0.00399169921875001;1.49999999621286;16;0.000233962418860756;
5.96480098494033;-0.0040008544921875;1.59999999596039;17;-0.00025939685292542;
6.06480098468785;-0.003985595703125;1.69999999570791;18;0.000406895211199299;
6.16480098443537;-0.00400390624999999;1.79999999545544;19;-0.000544226611964405;
6.2648009841829;-0.003997802734375;1.89999999520296;20;0.000376375741325319;
6.36480098393042;-0.004010009765625;1.99999999495049;21;-0.000356029428075999;
6.46480098367795;-0.0039947509765625;2.09999999469801;22;0.000442507473053411;
6.56480098342547;-0.00400390624999999;2.19999999444553;23;-0.000386555126169696;
6.664800983173;-0.0040130615234375;2.29999999419306;24;-1.01793657449889E-05;
6.76480098292052;-0.00400390624999999;2.39999999394058;25;0.000244146445766091;
6.86480098266804;-0.004010009765625;2.49999999368811;26;-0.000249229924520478;
6.96480098241557;-0.0040252685546875;2.59999999343563;27;-0.000178013171534985;
7.06480098216309;-0.00401611328125;2.69999999318316;28;0.000325514614814892;
7.16480098191062;-0.00401611328125;2.79999999293068;29;-0.000157676171511412;
7.26480098165814;-0.00400695800781251;2.8999999926782;30;0.000198362584342249;
7.36480098140567;-0.0040130615234375;2.99999999242573;31;-0.000218702683923766;
7.46480098115319;-0.00402221679687501;3.09999999217325;32;-6.61270678392611E-05;
7.56480098090071;-0.00402221679687501;3.19999999192078;33;8.64718313096091E-05;
7.66480098064824;-0.00402221679687501;3.2999999916683;34;-3.05163648590678E-05;
7.76480098039576;-0.0040283203125;3.39999999141583;35;-0.000111893859866541;
7.86480098014329;-0.00400695800781251;3.49999999116335;36;0.000462844473076984;
7.96480097989081;-0.0040252685546875;3.59999999091087;37;-0.000605253153480589;
8.06480097963833;-0.0040252685546875;3.6999999906584;38;0.000284829759038985;
8.16480097938586;-0.0040283203125;3.79999999040592;39;-0.000116985094791744;
8.26480097913338;-0.0040252685546875;3.89999999015345;40;9.15584096219391E-05;
8.36480097888091;-0.00403747558593751;3.99999998990097;41;-0.000269577780272812;
8.46480097862843;-0.00404052734375;4.0999999896485;42;9.66527513810433E-05;
8.56480097837596;-0.0040283203125;4.19999998939602;43;0.000218702683923766;
8.66480097812348;-0.0040252685546875;4.29999998914354;44;-9.66325678746216E-05;
8.764800977871;-0.0040283203125;4.39999998889107;45;-5.08657831232995E-05;
8.86480097761853;-0.00404052734375;4.49999998863859;46;-0.000178013171534985;
8.96480097736605;-0.00403747558593751;4.59999998838612;47;0.000188186328159645;
9.06480097711358;-0.00403442382812499;4.69999998813364;48;-2.03338950086618E-05;
9.1648009768611;-0.00401916503906249;4.79999998788117;49;0.000254304090049118;
9.26480097660863;-0.0040435791015625;4.89999998762869;50;-0.000615441822446883;
9.36480097635615;-0.00404052734375;4.99999998737621;51;0.000391651003155857;
9.46480097610367;-0.00403442382812499;5.09999998712374;52;-5.08657831232995E-06;
9.5648009758512;-0.00404968261718749;5.19999998687126;53;-0.000340783677529544;
9.66480097559872;-0.00403442382812499;5.29999998661879;54;0.000478107307571918;
9.76480097534625;-0.0040313720703125;5.39999998636631;55;-0.000172942105564289;
9.86480097509377;-0.0040435791015625;5.49999998611383;56;-0.000208531084354036;
9.9648009748413;-0.00403442382812499;5.59999998586136;57;0.00032043582177721;
10.0648009745888;-0.00403747558593751;5.69999998560888;58;-0.000203460032935254;
10.1648009743363;-0.00404968261718749;5.79999998535641;59;-0.000157660644617863;
10.2648009740839;-0.004046630859375;5.89999998510393;60;0.00018817545787897;
10.3648009738314;-0.00404968261718749;5.99999998485146;61;-0.000132233966724016;
10.4648009735789;-0.004046630859375;6.09999998459898;62;0.000101711390016135;
10.5648009733264;-0.00405273437500001;6.1999999843465;63;-0.000157669957843609;
10.664800973074;-0.00404052734375;6.29999998409403;64;0.000305186928017065;
10.7648009728215;-0.00406494140624999;6.39999998384155;65;-0.000610355229582638;
10.864800972569;-0.004046630859375;6.49999998358908;66;0.000661203928757459;
10.9648009723165;-0.004046630859375;6.5999999833366;67;-0.000295002915663645;
11.0648009720641;-0.0040557861328125;6.69999998308413;68;-0.000106805724499282;
11.1648009718116;-0.0040435791015625;6.79999998283165;69;0.000330604292685166;
11.2648009715591;-0.00406494140624999;6.89999998257917;70;-0.000564571411814541;
11.3648009713066;-0.0040557861328125;6.9999999823267;71;0.000457760994322598;
11.4648009710542;-0.00406799316406251;7.09999998207422;72;-0.000401816418161616;
11.5648009708017;-0.00405273437500001;7.19999998182175;73;0.000452683743787929;
11.6648009705492;-0.0040618896484375;7.29999998156927;74;-0.000386558211175725;
11.7648009702967;-0.00405273437500001;7.3999999813168;75;0.000325517728924751;
11.8648009700443;-0.00406494140624999;7.49999998106432;76;-0.000361116020940244;
11.9648009697918;-0.0040618896484375;7.59999998081184;77;0.00022886652732268;
12.0648009695393;-0.00406494140624999;7.69999998055937;78;-0.000132233966724016;
12.1648009692868;-0.00406799316406251;7.79999998030689;79;-1.0184022357862E-05;
12.2648009690344;-0.00406799316406251;7.89999998005442;80;2.54406531894347E-05;
12.3648009687819;-0.0040557861328125;7.99999997980194;81;0.000213631632504985;
12.4648009685294;-0.004071044921875;8.09999997954947;82;-0.000422161159804091;
12.5648009682769;-0.00408020019531249;8.19999997929699;83;5.08642297063489E-05;
12.6648009680245;-0.0040771484375;8.29999997904451;84;0.000111886096419767;
12.764800967772;-0.004058837890625;8.39999997879204;85;0.000269577780272812;
12.8648009675195;-0.00408325195312501;8.49999997853956;86;-0.000651046342682093;
12.964800967267;-0.004071044921875;8.59999997828709;87;0.000569675059523433;
13.0648009670145;-0.00408020019531249;8.69999997803461;88;-0.000391646346542984;
13.1648009667621;-0.004058837890625;8.79999997778214;89;0.000539138505700976;
13.2648009665096;-0.0040740966796875;8.89999997752966;90;-0.000559486332349479;
13.3648009662571;-0.00408325195312501;8.99999997727718;91;8.13774895505048E-05;
13.4648009660046;-0.00408020019531249;9.09999997702471;92;0.00011190782970516;
13.5648009657522;-0.00408935546875;9.19999997677223;93;-0.000233979502809234;
13.6648009654997;-0.00406494140624999;9.29999997651976;94;0.000564582238439471;
13.7648009652472;-0.00408020019531249;9.39999997626728;95;-0.000595098594203591;
13.8648009649947;-0.0040771484375;9.49999997601481;96;0.000315339915687218;
13.9648009647423;-0.00408935546875;9.59999997576233;97;-0.000310256436932832;
14.0648009644898;-0.00408020019531249;9.69999997550985;98;0.00032043582177721;
14.1648009642373;-0.0040771484375;9.79999997525738;99;-9.1564616013784E-05;
14.2648009639848;-0.0040863037109375;9.8999999750049;100;-0.000172921936609782;
14.3648009637324;-0.00408325195312501;9.99999997475243;101;0.000172926593222655;
14.4648009634799;-0.00408935546875;10.0999999745;102;-0.000178010057425126;
14.5648009632274;-0.00408935546875;10.1999999742475;103;8.1375939771533E-05;
14.6648009629749;-0.0040924072265625;10.299999973995;104;-7.62986746849492E-05;
14.7648009627225;-0.0040924072265625;10.3999999737425;105;3.56013915734366E-05;
14.86480096247;-0.00408020019531249;10.49999997349;106;0.000213626975892112;
14.9648009622175;-0.00408935546875;10.5999999732376;107;-0.000310270406771451;
15.064800961965;-0.0040924072265625;10.6999999729851;108;9.15522032300942E-05;
15.1648009617126;-0.0040924072265625;10.7999999727326;109;5.08347375216545E-06;
15.2648009614601;-0.0041015625;10.8999999724801;110;-0.000178013171534985;
15.3648009612076;-0.0040863037109375;10.9999999722277;111;0.000386558211175725;
15.4648009609551;-0.00408935546875;11.0999999719752;112;-0.000264486559899524;
15.5648009607027;-0.00409851074218751;11.1999999717227;113;-8.13821461633779E-05;
15.6648009604502;-0.00408935546875;11.2999999714702;114;0.000264492759015411;
15.7648009601977;-0.0041015625;11.3999999712178;115;-0.000361123762559146;
15.8648009599452;-0.0040924072265625;11.4999999709653;116;0.000340772792696953;
15.9648009596928;-0.00409851074218751;11.5999999707128;117;-0.000259398424532264;
16.0648009594403;-0.0040863037109375;11.6999999704603;118;0.000325531698763371;
16.1648009591878;-0.00408935546875;11.7999999702079;119;-0.000218715111259371;
16.2648009589353;-0.0041046142578125;11.8999999699554;120;-0.000203449162654579;
16.3648009586828;-0.004107666015625;11.9999999697029;121;0.000111892302811611;
16.4648009584304;-0.004107666015625;12.0999999694504;122;-1.52612865349511E-05;
16.5648009581779;-0.0041015625;12.199999969198;123;0.000101731566246599;
16.6648009579254;-0.004107666015625;12.2999999689455;124;-0.000183113719685934;
16.7648009576729;-0.00411376953125001;12.399999968693;125;-2.03432082344079E-05;
16.8648009574205;-0.00411071777343749;12.4999999684405;126;0.000106819694337901;
16.964800957168;-0.0041046142578125;12.5999999681881;127;5.59383915970102E-05;
17.0648009569155;-0.004119873046875;12.6999999679356;128;-0.000340775906806812;
17.164800956663;-0.004107666015625;12.7999999676831;129;0.000422154960688204;
17.2648009564106;-0.00411376953125001;12.8999999674306;130;-0.000305176072288305;
17.3648009561581;-0.00409851074218751;12.9999999671782;131;0.000391646346542984;
17.4648009559056;-0.004107666015625;13.0999999669257;132;-0.000366211897926405;
17.5648009556531;-0.00411071777343749;13.1999999666732;133;0.000101726909633726;
17.6648009554007;-0.00411071777343749;13.2999999664207;134;5.0803696467483E-06;
17.7648009551482;-0.00411376953125001;13.3999999661683;135;-6.61270678392611E-05;
17.8648009548957;-0.00411376953125001;13.4999999659158;136;3.56122582161333E-05;
17.9648009546432;-0.004119873046875;13.5999999656633;137;-0.000122067016491201;
18.0648009543908;-0.00411376953125001;13.6999999654108;138;0.000183099749847315;
18.1648009541383;-0.00411376953125001;13.7999999651583;139;-9.15475466172211E-05;
18.2648009538858;-0.0041168212890625;13.8999999649059;140;-3.55951815436129E-05;
18.3648009536333;-0.004119873046875;13.9999999646534;141;-2.03509698621929E-05;
18.4648009533809;-0.00411376953125001;14.0999999644009;142;0.000137328301207162;
18.5648009531284;-0.004119873046875;14.1999999641484;143;-0.000193271349417046;
18.6648009528759;-0.00411071777343749;14.299999963896;144;0.000259398424532264;
18.7648009526234;-0.0041229248046875;14.3999999636435;145;-0.000350964604876935;
18.864800952371;-0.004119873046875;14.499999963391;146;0.000228888267884031;
18.9648009521185;-0.0041229248046875;14.5999999631385;147;-0.000132249479065649;
19.064800951866;-0.00412597656249999;14.6999999628861;148;-1.01669475043309E-05;
19.1648009516135;-0.004132080078125;14.7999999626336;149;-8.64702815306373E-05;
19.2648009513611;-0.0041229248046875;14.8999999623811;150;0.000228878954658285;
19.3648009511086;-0.00412597656249999;14.9999999621286;151;-0.000183099749847315;
19.4648009508561;-0.00412597656249999;15.0999999618762;152;6.61146550555713E-05;
19.5648009506036;-0.004119873046875;15.1999999616237;153;0.000101722253020853;
19.6648009503512;-0.00412597656249999;15.2999999613712;154;-0.000183099749847315;
19.7648009500987;-0.004132080078125;15.3999999611187;155;-2.0347864847281E-05;
19.8648009498462;-0.0041229248046875;15.4999999608663;156;0.000218705798033625;
19.9648009495937;-0.00412902832031251;15.5999999606138;157;-0.000239053653785959;
20.0648009493412;-0.00412902832031251;15.6999999603613;158;0.000101728459412698;
20.1648009490888;-0.0041229248046875;15.7999999601088;159;9.15522032300942E-05;
20.2648009488363;-0.00412902832031251;15.8999999598564;160;-0.000183109063073061;
20.3648009485838;-0.0041351318359375;15.9999999596039;161;-2.03385516215349E-05;
20.4648009483313;-0.00412902832031251;16.0999999593514;162;0.00016275497910101;
20.5648009480789;-0.004132080078125;16.1999999590989;163;-0.000147489045048133;
20.6648009478264;-0.0041351318359375;16.2999999588465;164;-6.20882323332239E-09;
20.7648009475739;-0.00412902832031251;16.399999958594;165;0.000137328301207162;
20.8648009473214;-0.0041351318359375;16.4999999583415;166;-0.000193271349417046;
20.964800947069;-0.00413818359375;16.599999958089;167;3.55951815436129E-05;
21.0648009468165;-0.00412902832031251;16.6999999578366;168;0.000183105948963203;
21.164800946564;-0.00414123535156249;16.7999999575841;169;-0.000340771250193939;
21.2648009463115;-0.00414123535156249;16.8999999573316;170;0.000172925036167726;
21.3648009460591;-0.0041351318359375;16.9999999570791;171;7.12043329258449E-05;
21.4648009458066;-0.004150390625;17.0999999568267;172;-0.000350949063431472;
21.5648009455541;-0.004150390625;17.1999999565742;173;0.000198364141397178;
21.6648009453016;-0.00414123535156249;17.2999999563217;174;0.000116986644570716;
21.7648009450492;-0.00413818359375;17.3999999560692;175;-5.08750963490456E-05;
21.8648009447967;-0.00413818359375;17.4999999558167;176;-5.08502625962137E-06;
21.9648009445442;-0.0041351318359375;17.5999999555643;177;6.61224112263881E-05;
22.0648009442917;-0.00414123535156249;17.6999999553118;178;-0.000147499900776893;
22.1648009440393;-0.00414428710937501;17.7999999550593;179;2.54220267379424E-05;
22.2648009437868;-0.004150390625;17.8999999548068;180;-9.66279112617485E-05;
22.3648009435343;-0.00416259765625;17.9999999545544;181;-0.000162759635713883;
22.4648009432818;-0.00415649414062499;18.0999999543019;182;0.000233968632528558;
22.5648009430294;-0.004150390625;18.1999999540494;183;-6.20882323332239E-09;
22.6648009427769;-0.0041473388671875;18.2999999537969;184;5.09433948536753E-06;
22.7648009425244;-0.0041473388671875;18.3999999535445;185;-1.52566308315727E-05;
22.8648009422719;-0.0041473388671875;18.499999953292;186;1.0176260730077E-05;
22.9648009420195;-0.00414123535156249;18.5999999530395;187;0.000111898516479414;
23.064800941767;-0.00414123535156249;18.699999952787;188;-7.12120963726193E-05;
23.1648009415145;-0.0041473388671875;18.7999999525346;189;-9.15522032300942E-05;
23.264800941262;-0.0041473388671875;18.8999999522821;190;7.12136461515911E-05;
23.3648009410095;-0.0041473388671875;18.9999999520296;191;-2.03416566364467E-05;
23.4648009407571;-0.00415954589843751;19.0999999517771;192;-0.000223800132516772;
23.5648009405046;-0.004150390625;19.1999999515247;193;0.000310270406771451;
23.6648009402521;-0.00415954589843751;19.2999999512722;194;-0.000315355428028852;
23.7648009399996;-0.0041534423828125;19.3999999510197;195;0.000249229924520478;
23.8648009397472;-0.00415954589843751;19.4999999507672;196;-0.000213626975892112;
23.9648009394947;-0.00416259765625;19.5999999505148;197;3.56153614120558E-05;
24.0648009392422;-0.00416259765625;19.6999999502623;198;1.52581824295339E-05;
24.1648009389897;-0.00416259765625;19.7999999500098;199;-1.01685000117868E-05;
24.2648009387373;-0.00415649414062499;19.8999999497573;200;0.000111898516479414;
24.3648009384848;-0.0041656494140625;19.9999999495049;201;-0.000239061424508691;
24.4648009382323;-0.00415649414062499;20.0999999492524;202;0.000295009114779532;
24.5648009379798;-0.00416259765625;20.1999999489999;203;-0.000249229924520478;
24.6648009377274;-0.00415954589843751;20.2999999487474;204;0.000157673057401553;
24.7648009374749;-0.004168701171875;20.399999948495;205;-0.000223792376345955;
24.8648009372224;-0.0041778564453125;20.4999999482425;206;-5.08595730934758E-05;
24.9648009369699;-0.0041656494140625;20.59999994799;207;0.000300086394418031;
25.0648009367175;-0.004168701171875;20.6999999477375;208;-0.000228885153774172;
25.164800936465;-0.0041656494140625;20.799999947485;209;0.000132244822452776;
25.2648009362125;-0.0041656494140625;20.8999999472326;210;-4.57776513940189E-05;
25.36480093596;-0.0041656494140625;20.9999999469801;211;1.01731566246599E-05;
25.4648009357076;-0.004168701171875;21.0999999467276;212;-5.59539148525801E-05;
25.5648009354551;-0.00416259765625;21.1999999464751;213;0.000147509214002639;
25.6648009352026;-0.0041656494140625;21.2999999462227;214;-0.000137332957820036;
25.7648009349501;-0.004180908203125;21.3999999459702;215;-0.000223793918848969;
25.8648009346977;-0.0041656494140625;21.4999999457177;216;0.000447590951807797;
25.9648009344452;-0.0041778564453125;21.5999999454652;217;-0.000452672858955339;
26.0648009341927;-0.0041778564453125;21.6999999452128;218;0.000193280662642792;
26.1648009339402;-0.0041778564453125;21.7999999449603;219;-4.06864164688159E-05;
26.2648009336878;-0.0041778564453125;21.8999999447078;220;3.1044116166612E-09;
26.3648009334353;-0.00417480468750001;21.9999999444553;221;5.59446016268339E-05;
26.4648009331828;-0.00417480468750001;22.0999999442029;222;-3.55982883775141E-05;
26.5648009329303;-0.00418701171874999;22.1999999439504;223;-0.000213617662666366;
26.6648009326778;-0.00417175292968749;22.2999999436979;224;0.000422151846578345;
26.7648009324254;-0.0041839599609375;22.3999999434454;225;-0.000442513701273128;
26.8648009321729;-0.0041778564453125;22.499999943193;226;0.000305186928017065;
26.9648009319204;-0.00417480468750001;22.5999999429405;227;-5.59554646315519E-05;
27.0648009316679;-0.00419006347656251;22.699999942688;228;-0.000294996716547757;
27.1648009314155;-0.0041839599609375;22.7999999424355;229;0.000300087936921045;
27.264800931163;-0.0041839599609375;22.8999999421831;230;-0.000122076322440989;
27.3648009309105;-0.004193115234375;22.9999999419306;231;-0.00014749524416402;
27.464800930658;-0.00418701171874999;23.0999999416781;232;0.000218708897591569;
27.5648009304056;-0.0041961669921875;23.1999999414256;233;-0.000269577780272812;
27.6648009301531;-0.00419006347656251;23.2999999411732;234;0.000239055210840888;
27.7648009299006;-0.004180908203125;23.3999999409207;235;6.61286248941906E-05;
27.8648009296481;-0.00419006347656251;23.4999999406682;236;-0.000254319602390751;
27.9648009293957;-0.00418701171874999;23.5999999404157;237;0.000193288418813609;
28.0648009291432;-0.0041839599609375;23.6999999401633;238;-1.01886789707351E-05;
28.1648009288907;-0.00419006347656251;23.7999999399108;239;-0.000137325201649219;
28.2648009286382;-0.00419006347656251;23.8999999396583;240;8.13837032183073E-05;
28.3648009283858;-0.00418701171874999;23.9999999394058;241;3.56107047991827E-05;
28.4648009281333;-0.00419006347656251;24.0999999391533;242;-9.15661730687134E-05;
28.5648009278808;-0.0042083740234375;24.1999999389009;243;-0.000289900810457766;
28.6648009276283;-0.00418701171874999;24.2999999386484;244;0.000595089280977845;
28.7648009273759;-0.004193115234375;24.3999999383959;245;-0.000422161159804091;
28.8648009271234;-0.0041961669921875;24.4999999381434;246;8.6467174696736E-05;
28.9648009268709;-0.00419921875;24.599999937891;247;-4.06941799155902E-05;
29.0648009266184;-0.0041961669921875;24.6999999376385;248;8.13821461633779E-05;
29.164800926366;-0.00419921875;24.799999937386;249;-0.000101731566246599;
29.2648009261135;-0.004193115234375;24.8999999371335;250;0.000157682370627299;
29.364800925861;-0.004180908203125;24.9999999368811;251;0.000142411779961549;
29.4648009256085;-0.00419921875;25.0999999366286;252;-0.000457767222542316;
29.5648009253561;-0.0041961669921875;25.1999999363761;253;0.000310264207655564;
29.6648009251036;-0.00419921875;25.2999999361236;254;-0.000152594249811955;
29.7648009248511;-0.0041961669921875;25.3999999358712;255;0.000101728459412698;
29.8648009245986;-0.00420227050781249;25.4999999356187;256;-0.000157673057401553;
29.9648009243462;-0.00420227050781249;25.5999999353662;257;8.1375939771533E-05;
30.0648009240937;-0.00420227050781249;25.6999999351137;258;-2.03463132493198E-05;
30.1648009238412;-0.004193115234375;25.7999999348613;259;0.000167847771081142;
30.2648009235887;-0.00420227050781249;25.8999999346088;260;-0.000274655059911311;
30.3648009233362;-0.0042083740234375;25.9999999343563;261;2.54297865467379E-05;
30.4648009230838;-0.0041961669921875;26.0999999341038;262;0.000264486559899524;
30.5648009228313;-0.00421142578125;26.1999999338514;263;-0.000442504358943552;
30.6648009225788;-0.00422058105468751;26.2999999335989;264;5.08595730934758E-05;
30.7648009223263;-0.00421142578125;26.3999999333464;265;0.000223803232074715;
30.8648009220739;-0.0042083740234375;26.4999999330939;266;-8.13790466054343E-05;
30.9648009218214;-0.00419921875;26.5999999328415;267;0.000162753436597995;
31.0648009215689;-0.0042083740234375;26.699999932589;268;-0.000264477246673778;
31.1648009213164;-0.00421142578125;26.7999999323365;269;8.1375939771533E-05;
31.264800921064;-0.00420532226562501;26.899999932084;270;0.000116983537736814;
31.3648009208115;-0.0042083740234375;26.9999999318316;271;-0.000137317430926487;
31.464800920559;-0.0041961669921875;27.0999999315791;272;0.000279738509561867;
31.5648009203065;-0.0042083740234375;27.1999999313266;273;-0.000376377312932163;
31.6648009200541;-0.00420532226562501;27.2999999310741;274;0.000239048997173086;
31.7648009198016;-0.0042083740234375;27.3999999308217;275;-0.000132229310111143;
31.8648009195491;-0.00421752929687499;27.4999999305692;276;-0.000122074779937975;
31.9648009192966;-0.00421752929687499;27.5999999303167;277;9.66356747085229E-05;
32.0648009190442;-0.00421752929687499;27.6999999300642;278;-3.05194698739797E-05;
32.1648009187917;-0.00421752929687499;27.7999999298117;279;-1.5522058083306E-09;
32.2648009185392;-0.0042236328125;27.8999999295593;280;-0.000111896959424485;
32.3648009182867;-0.00421752929687499;27.9999999293068;281;0.000183109063073061;
32.4648009180343;-0.00421752929687499;28.0999999290543;282;-9.15568598429672E-05;
32.5648009177818;-0.0042266845703125;28.1999999288018;283;-0.000147506114444695;
32.6648009175293;-0.00421142578125;28.2999999285494;284;0.00038655978278257;
32.7648009172768;-0.0042236328125;28.3999999282969;285;-0.000432328117312863;
32.8648009170244;-0.0042144775390625;28.4999999280444;286;0.000361117563443258;
32.9648009167719;-0.0042236328125;28.5999999277919;287;-0.000315339915687218;
33.0648009165194;-0.0042236328125;28.6999999275395;288;0.000137329858262092;
33.1648009162669;-0.0042266845703125;28.799999927287;289;-8.6467174696736E-05;
33.2648009160145;-0.004229736328125;28.8999999270345;290;-2.03494182642316E-05;
33.364800915762;-0.00422058105468751;28.999999926782;291;0.000193277563084848;
33.4648009155095;-0.0042266845703125;29.0999999265296;292;-0.000228875840548426;
33.564800915257;-0.00422058105468751;29.1999999262771;293;0.000213617662666366;
33.6648009150045;-0.00422058105468751;29.2999999260246;294;-9.15475466172211E-05;
33.7648009147521;-0.004229736328125;29.3999999257721;295;-0.000147503014886752;
33.8648009144996;-0.0042266845703125;29.4999999255197;296;0.000162759635713883;
33.9648009142471;-0.0042266845703125;29.5999999252672;297;-6.61224112263881E-05;
34.0648009139946;-0.0042236328125;29.6999999250147;298;6.61270678392611E-05;
34.1648009137422;-0.00421752929687499;29.7999999247622;299;7.62940180720761E-05;
34.2648009134897;-0.004241943359375;29.8999999245098;300;-0.000508632976561785;
34.3648009132372;-0.00423278808593749;29.9999999242573;301;0.000473028514534235;
34.4648009129847;-0.00423278808593749;30.0999999240048;302;-0.000188197183888406;
34.5648009127323;-0.00423278808593749;30.1999999237523;303;3.05163648590678E-05;
34.6648009124798;-0.0042266845703125;30.2999999234999;304;0.000111893859866541;
34.7648009122273;-0.0042266845703125;30.3999999232474;305;-7.12043329258449E-05;
34.8648009119748;-0.00423583984375001;30.4999999229949;306;-0.000147504557389766;
34.9648009117224;-0.0042449951171875;30.5999999227424;307;-6.10327297181357E-05;
35.0648009114699;-0.004229736328125;30.69999992249;308;0.000356032542185858;
35.1648009112174;-0.00423278808593749;30.7999999222375;309;-0.000264481903286651;
35.2648009109649;-0.004229736328125;30.899999921985;310;0.000142402466735803;
35.3648009107125;-0.0042388916015625;30.9999999217325;311;-0.000213611448998563;
35.46480091046;-0.004241943359375;31.09999992148;312;6.10311799391638E-05;
35.5648009102075;-0.00423583984375001;31.1999999212276;313;0.000116983537736814;
35.664800909955;-0.0042449951171875;31.2999999209751;314;-0.000249225267907605;
35.7648009097026;-0.0042388916015625;31.3999999207226;315;0.000239058310398832;
35.8648009094501;-0.00425109863281251;31.4999999204701;316;-0.000325527042150497;
35.9648009091976;-0.00424804687499999;31.5999999202177;317;0.000218721310375258;
36.0648009089451;-0.0042449951171875;31.6999999199652;318;-2.03618346859002E-05;
36.1648009086927;-0.00424804687499999;31.7999999197127;319;-8.13712831586599E-05;
36.2648009084402;-0.004241943359375;31.8999999194602;320;0.000157665301230736;
36.3648009081877;-0.0042449951171875;31.9999999192078;321;-0.000137329858262092;
36.4648009079352;-0.00424804687499999;32.0999999189553;322;4.65661731396949E-09;
36.5648009076828;-0.0042388916015625;32.1999999187028;323;0.000193274448974989;
36.6648009074303;-0.00425109863281251;32.2999999184503;324;-0.000340780563419685;
36.7648009071778;-0.0042449951171875;32.3999999181979;325;0.000284834415651858;
36.8648009069253;-0.0042388916015625;32.4999999179454;326;3.1044116166612E-09;
36.9648009066728;-0.00425109863281251;32.5999999176929;327;-0.000274664373137057;
37.0648009064204;-0.004241943359375;32.6999999174404;328;0.000330616720020771;
37.1648009061679;-0.004241943359375;32.799999917188;329;-0.000147506114444695;
37.2648009059154;-0.00425109863281251;32.8999999169355;330;-0.000137331400765106;
37.3648009056629;-0.004254150390625;32.999999916683;331;5.08750963490456E-05;
37.4648009054105;-0.0042449951171875;33.0999999164305;332;0.000172921936609782;
37.564800905158;-0.0042449951171875;33.1999999161781;333;-0.000116985094791744;
37.6648009049055;-0.0042572021484375;33.2999999159256;334;-0.000193277563084848;
37.764800904653;-0.00424804687499999;33.3999999156731;335;0.000310264207655564;
37.8648009044006;-0.0042449951171875;33.4999999154206;336;-9.1564616013784E-05;
37.9648009041481;-0.004254150390625;33.5999999151682;337;-0.000172921936609782;
38.0648009038956;-0.004254150390625;33.6999999149157;338;0.000116985094791744;
38.1648009036431;-0.0042449951171875;33.7999999146632;339;0.000137323644594289;
38.2648009033907;-0.00426025390625;33.8999999144107;340;-0.000386558211175725;
38.3648009031382;-0.00425109863281251;33.9999999141583;341;0.000376381969545037;
38.4648009028857;-0.0042572021484375;34.0999999139058;342;-0.000269565352937207;
38.5648009026332;-0.0042449951171875;34.1999999136533;343;0.000325513072311878;
38.6648009023808;-0.004254150390625;34.2999999134008;344;-0.000330599636072293;
38.7648009021283;-0.0042572021484375;34.3999999131483;345;9.15490963961929E-05;
38.8648009018758;-0.0042449951171875;34.4999999128959;346;0.000228878954658285;
38.9648009016233;-0.0042572021484375;34.5999999126434;347;-0.000376381969545037;
39.0648009013709;-0.00426635742187501;34.6999999123909;348;1.52550783241168E-05;
39.1648009011184;-0.00425109863281251;34.7999999121384;349;0.000345871812896803;
39.2648009008659;-0.004254150390625;34.899999911886;350;-0.000264477246673778;
39.3648009006134;-0.0042572021484375;34.9999999116335;351;3.05117082461948E-05;
39.464800900361;-0.0042572021484375;35.099999911381;352;2.54328915616497E-05;
39.5648009001085;-0.00426025390625;35.1999999111285;353;-6.61270678392611E-05;
39.664800899856;-0.00426025390625;35.2999999108761;354;3.56013915734366E-05;
39.7648008996035;-0.0042572021484375;35.3999999106236;355;4.57776513940189E-05;
39.8648008993511;-0.0042755126953125;35.4999999103711;356;-0.000371303147403523;
39.9648008990986;-0.00426025390625;35.5999999101186;357;0.000503538642078638;
40.0648008988461;-0.00425109863281251;35.6999999098662;358;-7.1208989538718E-05;
40.1648008985936;-0.0042724609375;35.7999999096137;359;-0.00044758475269191;
40.2648008983412;-0.00426635742187501;35.8999999093612;360;0.000391637033317238;
40.3648008980887;-0.0042755126953125;35.9999999091087;361;-0.000310259551042691;
40.4648008978362;-0.00426635742187501;36.0999999088563;362;0.000294999801553786;
40.5648008975837;-0.00426025390625;36.1999999086038;363;-2.54297865467379E-05;
40.6648008973312;-0.0042694091796875;36.2999999083513;364;-0.000208532641408965;
40.7648008970788;-0.0042572021484375;36.3999999080988;365;0.000350949063431472;
40.8648008968263;-0.00426635742187501;36.4999999078464;366;-0.000340780563419685;
40.9648008965738;-0.0042572021484375;36.5999999075939;367;0.000315355428028852;
41.0648008963213;-0.0042694091796875;36.6999999073414;368;-0.000361123762559146;
41.1648008960689;-0.00426330566406249;36.7999999070889;369;0.000284831301541999;
41.2648008958164;-0.0042724609375;36.8999999068365;370;-0.000279750936897472;
41.3648008955639;-0.00426330566406249;36.999999906584;371;0.000295009114779532;
41.4648008953114;-0.00427856445312499;37.0999999063315;372;-0.000417079252656549;
41.564800895059;-0.0042694091796875;37.199999906079;373;0.000376385054551065;
41.6648008948065;-0.0042755126953125;37.2999999058266;374;-0.000269576237769797;
41.764800894554;-0.0042755126953125;37.3999999055741;375;0.000101723802799825;
41.8648008943015;-0.0042724609375;37.4999999053216;376;3.5604494769359E-05;
41.9648008940491;-0.00428466796875;37.5999999050691;377;-0.000259395310422406;
42.0648008937966;-0.0042724609375;37.6999999048167;378;0.000376381969545037;
42.1648008935441;-0.00428161621093751;37.7999999045642;379;-0.000350953720044345;
42.2648008932916;-0.00428161621093751;37.8999999043117;380;0.000147506114444695;
42.3648008930392;-0.0042755126953125;37.9999999040592;381;8.13790466054343E-05;
42.4648008927867;-0.00427856445312499;38.0999999038067;382;-0.000127155144582503;
42.5648008925342;-0.00426635742187501;38.1999999035543;383;0.000279733852948993;
42.6648008922817;-0.00427856445312499;38.2999999033018;384;-0.000376369542209432;
42.7648008920293;-0.00428161621093751;38.3999999030493;385;0.000127142731798813;
42.8648008917768;-0.00427856445312499;38.4999999027968;386;5.08766497659963E-05;
42.9648008915243;-0.0042724609375;38.5999999025444;387;6.61099984426983E-05;
43.0648008912718;-0.00427856445312499;38.6999999022919;388;-0.000172926593222655;
43.1648008910194;-0.0042724609375;38.7999999020394;389;0.000203442948986776;
43.2648008907669;-0.0042724609375;38.8999999017869;390;-9.15490963961929E-05;
43.3648008905144;-0.0042724609375;38.9999999015345;391;2.03447616513586E-05;
43.4648008902619;-0.0042755126953125;39.099999901282;392;-5.59539148525801E-05;
43.5648008900095;-0.00427856445312499;39.1999999010295;393;-2.03401050384855E-05;
43.664800889757;-0.00428466796875;39.299999900777;394;-8.64702815306373E-05;
43.7648008895045;-0.00429382324218749;39.3999999005246;395;-0.000106807281554211;
43.864800889252;-0.0042755126953125;39.4999999002721;396;0.000422148732468486;
43.9648008889995;-0.00427856445312499;39.5999999000196;397;-0.000300081737805158;
44.0648008887471;-0.0042877197265625;39.6999998997671;398;-7.12167529854923E-05;
44.1648008884946;-0.00428161621093751;39.7999998995147;399;0.000208538840524852;
44.2648008882421;-0.004290771484375;39.8999998992622;400;-0.00026957000955008;
44.3648008879896;-0.0042877197265625;39.9999998990097;401;0.000183104406460188;
44.4648008877372;-0.004290771484375;40.0999998987572;402;-0.000122076322440989;
44.5648008874847;-0.004290771484375;40.1999998985048;403;4.57745481980965E-05;
44.6648008872322;-0.00427856445312499;40.2999998982523;404;0.000213626975892112;
44.7648008869797;-0.00429382324218749;40.3999998979998;405;-0.000422165816416964;
44.8648008867273;-0.00428466796875;40.4999998977473;406;0.000386558211175725;
44.9648008864748;-0.00429382324218749;40.5999998974949;407;-0.000325517728924751;
45.0648008862223;-0.004290771484375;40.6999998972424;408;0.000193266692804173;
45.1648008859698;-0.00428466796875;40.7999998969899;409;4.57869646197651E-05;
45.2648008857174;-0.00429687500000001;40.8999998967374;410;-0.000284837529761717;
45.3648008854649;-0.0042877197265625;40.999999896485;411;0.000330616720020771;
45.4648008852124;-0.00427856445312499;41.0999998962325;412;2.03432082344079E-05;
45.5648008849599;-0.0042877197265625;41.19999989598;413;-0.000244147988269106;
45.6648008847075;-0.0042999267578125;41.2999998957275;414;-8.64578614709899E-05;
45.764800884455;-0.00429687500000001;41.399999895475;415;0.00016784155741334;
45.8648008842025;-0.0043060302734375;41.4999998952226;416;-0.000244137132540345;
45.96480088395;-0.00429382324218749;41.5999998949701;417;0.000340780563419685;
46.0648008836976;-0.0042999267578125;41.6999998947176;418;-0.000284834415651858;
46.1648008834451;-0.004302978515625;41.7999998944651;419;5.59508080186788E-05;
46.2648008831926;-0.00429687500000001;41.8999998942127;420;0.000127155144582503;
46.3648008829401;-0.00429687500000001;41.9999998939602;421;-8.1375939771533E-05;
46.4648008826877;-0.0042999267578125;42.0999998937077;422;-3.55951815436129E-05;
46.5648008824352;-0.0042999267578125;42.1999998934552;423;3.56029449903872E-05;
46.6648008821827;-0.004290771484375;42.2999998932028;424;0.00015766840078868;
46.7648008819302;-0.00431213378906251;42.3999998929503;425;-0.000498453620821238;
46.8648008816778;-0.004290771484375;42.4999998926978;426;0.00067138799931854;
46.9648008814253;-0.00429687500000001;42.5999998924453;427;-0.000432335888035595;
47.0648008811728;-0.004290771484375;42.6999998921929;428;0.000254314945777878;
47.1648008809203;-0.004302978515625;42.7999998919404;429;-0.000315349228912964;
47.2648008806678;-0.004290771484375;42.8999998916879;430;0.000386550469556823;
47.3648008804154;-0.00431213378906251;42.9999998914354;431;-0.000574747624341398;
47.4648008801629;-0.004302978515625;43.099999891183;432;0.000457770307548344;
47.5648008799104;-0.004302978515625;43.1999998909305;433;-0.000178022484760731;
47.6648008796579;-0.004290771484375;43.299999890678;434;0.000254308746661991;
47.7648008794055;-0.00431213378906251;43.3999998904255;435;-0.000534058141056448;
47.864800879153;-0.00430908203124999;43.4999998901731;436;0.000345874897902831;
47.9648008789005;-0.00431213378906251;43.5999998899206;437;-0.000162773605552502;
48.064800878648;-0.00430908203124999;43.6999998896681;438;0.000101739329693373;
48.1648008783956;-0.00429382324218749;43.7999998894156;439;0.000233959319302812;
48.2648008781431;-0.004302978515625;43.8999998891632;440;-0.000335697084665298;
48.3648008778906;-0.00429687500000001;43.9999998889107;441;0.000269573123659939;
48.4648008776381;-0.0043060302734375;44.0999998886582;442;-0.00026957000955008;
48.5648008773857;-0.00429382324218749;44.1999998884057;443;0.000350953720044345;
48.6648008771332;-0.004302978515625;44.2999998881533;444;-0.000340788334142417;
48.7648008768807;-0.004315185546875;44.3999998879008;445;-7.628470484633E-05;
48.8648008766282;-0.0043060302734375;44.4999998876483;446;0.000279736967058852;
48.9648008763758;-0.00429687500000001;44.5999998873958;447;2.03463132493198E-05;
49.0648008761233;-0.0043060302734375;44.6999998871433;448;-0.000244140232098289;
49.1648008758708;-0.0043212890625;44.7999998868909;449;-0.000142421093187295;
49.2648008756183;-0.00429687500000001;44.8999998866384;450;0.000595092424191535;
49.3648008753659;-0.0043212890625;44.9999998863859;451;-0.000783283379860222;
49.4648008751134;-0.00431213378906251;45.0999998861334;452;0.000534054997842759;
49.5648008748609;-0.0042999267578125;45.199999885881;453;3.56153614120558E-05;
49.6648008746084;-0.00430908203124999;45.2999998856285;454;-0.000279747851891443;
49.764800874356;-0.004315185546875;45.399999885376;455;3.56029449903872E-05;
49.8648008741035;-0.00431213378906251;45.4999998851235;456;9.66372244874947E-05;
49.964800873851;-0.0043182373046875;45.5999998848711;457;-0.000167838457855396;
50.0648008735985;-0.0043060302734375;45.6999998846186;458;0.000305166759062558;
50.1648008733461;-0.0043212890625;45.7999998843661;459;-0.000442507473053411;
50.2648008730936;-0.004315185546875;45.8999998841136;460;0.000330613635014743;
50.3648008728411;-0.00431213378906251;45.9999998838612;461;-6.61270678392611E-05;
50.4648008725886;-0.0042999267578125;46.0999998836087;462;0.000208551267860457;
50.5648008723362;-0.00432434082031249;46.1999998833562;463;-0.000579838873818517;
50.6648008720837;-0.0043212890625;46.2999998831037;464;0.000381459220079705;
50.7648008718312;-0.0043182373046875;46.3999998828513;465;-6.10296265222132E-05;
50.8648008715787;-0.00432434082031249;46.4999998825988;466;-0.000137328301207162;
50.9648008713262;-0.00432739257812501;46.5999998823463;467;2.54220267379424E-05;
51.0648008710738;-0.0043182373046875;46.6999998820938;468;0.000183116819243878;
51.1648008708213;-0.00431213378906251;46.7999998818414;469;-5.0927869779116E-06;
51.2648008705688;-0.004315185546875;46.8999998815889;470;-9.66263614827767E-05;
51.3648008703163;-0.0043212890625;46.9999998813364;471;-5.5960121244425E-05;
51.4648008700639;-0.00432434082031249;47.0999998810839;472;5.0927869779116E-06;
51.5648008698114;-0.00432739257812501;47.1999998808315;473;-4.07019397243857E-05;
51.6648008695589;-0.00432739257812501;47.299999880579;474;2.54406531894347E-05;
51.7648008693064;-0.00431213378906251;47.3999998803265;475;0.000269573123659939;
51.864800869054;-0.00432434082031249;47.499999880074;476;-0.000401808647438884;
51.9648008688015;-0.00432434082031249;47.5999998798216;477;0.000193269792362116;
52.064800868549;-0.0043182373046875;47.6999998795691;478;7.12043329258449E-05;
52.1648008682965;-0.00432434082031249;47.7999998793166;479;-0.000183099749847315;
52.2648008680441;-0.0043212890625;47.8999998790641;480;0.000147489045048133;
52.3648008677916;-0.004315185546875;47.9999998788117;481;5.5960121244425E-05;
52.4648008675391;-0.00432739257812501;48.0999998785592;482;-0.000284837529761717;
52.5648008672866;-0.00432739257812501;48.1999998783067;483;0.000162767406436615;
52.6648008670342;-0.00432434082031249;48.2999998780542;484;1.52643915498629E-05;
52.7648008667817;-0.0043182373046875;48.3999998778017;485;7.62831550673582E-05;
52.8648008665292;-0.00433349609375;48.4999998775493;486;-0.000340775906806812;
52.9648008662767;-0.0043182373046875;48.5999998772968;487;0.000478108879178762;
53.0648008660243;-0.0043304443359375;48.6999998770443;488;-0.000452672858955339;
53.1648008657718;-0.00433959960937499;48.7999998767918;489;2.54313399636885E-05;
53.2648008655193;-0.0043304443359375;48.8999998765394;490;0.000233967075473629;
53.3648008652668;-0.0043212890625;48.9999998762869;491;3.05132616631454E-05;
53.4648008650144;-0.0043304443359375;49.0999998760344;492;-0.000244132475927472;
53.5648008647619;-0.0043182373046875;49.1999998757819;493;0.000361120677553117;
53.6648008645094;-0.0043304443359375;49.2999998755295;494;-0.000396722054574639;
53.7648008642569;-0.00432434082031249;49.399999875277;495;0.000295002915663645;
53.8648008640045;-0.00433959960937499;49.4999998750245;496;-0.000391646346542984;
53.964800863752;-0.0043182373046875;49.599999874772;497;0.000590002746321261;
54.0648008634995;-0.004345703125;49.6999998745196;498;-0.000803621951490641;
54.164800863247;-0.00434265136718751;49.7999998742671;499;0.000447586295194924;
54.2648008629945;-0.00433349609375;49.8999998740146;500;4.06988365284633E-05;
54.3648008627421;-0.00432739257812501;49.9999998737621;501;1.52519742186996E-05;
54.4648008624896;-0.0043365478515625;50.0999998735097;502;-0.000208534183911979;
54.5648008622371;-0.00434265136718751;50.1999998732572;503;1.52550783241168E-05;
54.6648008619846;-0.00433959960937499;50.2999998730047;504;9.66480947681703E-05;
54.7648008617322;-0.00434265136718751;50.3999998727522;505;-0.000111910929263104;
54.8648008614797;-0.0043365478515625;50.4999998724998;506;0.000157680828124285;
54.9648008612272;-0.0043304443359375;50.5999998722473;507;3.05210232909303E-05;
55.0648008609747;-0.00433959960937499;50.6999998719948;508;-0.000218710454646498;
55.1648008607223;-0.00434265136718751;50.7999998717423;509;7.11996763129719E-05;
55.2648008604698;-0.0043304443359375;50.8999998714899;510;0.000228897581109777;
55.3648008602173;-0.0043365478515625;50.9999998712374;511;-0.000264497415628284;
55.4648008599648;-0.00433349609375;51.0999998709849;512;0.000167850870639086;
55.5648008597124;-0.00433349609375;51.1999998707324;513;-5.59508080186788E-05;
55.6648008594599;-0.004345703125;51.29999987048;514;-0.000213617662666366;
55.7648008592074;-0.00432739257812501;51.3999998702275;515;0.000478104222565889;
55.8648008589549;-0.0043487548828125;51.499999869975;516;-0.000645947351586074;
55.9648008587025;-0.00433959960937499;51.5999998697225;517;0.000478107307571918;
56.06480085845;-0.0043487548828125;51.69999986947;518;-0.000345873355399817;
56.1648008581975;-0.0043365478515625;51.7999998692176;519;0.000361123762559146;
56.264800857945;-0.00435485839843749;51.8999998689651;520;-0.000508622149936855;
56.3648008576926;-0.0043365478515625;51.9999998687126;521;0.000589993433095515;
56.4648008574401;-0.0043487548828125;52.0999998684601;522;-0.00049844739260152;
56.5648008571876;-0.0043487548828125;52.1999998682077;523;0.000203449162654579;
56.6648008569351;-0.00433959960937499;52.2999998679552;524;0.000127159801195376;
56.7648008566827;-0.0043487548828125;52.3999998677027;525;-0.000274665915640071;
56.8648008564302;-0.00435485839843749;52.4999998674502;526;2.54375481745228E-05;
56.9648008561777;-0.00433959960937499;52.5999998671978;527;0.000320429593557492;
57.0648008559252;-0.0043609619140625;52.6999998669453;528;-0.000590005831327289;
57.1648008556728;-0.0043365478515625;52.7999998666928;529;0.000747677346225828;
57.2648008554203;-0.004351806640625;52.8999998664403;530;-0.000635785050690174;
57.3648008551678;-0.00435485839843749;52.9999998661879;531;0.000203453819267452;
57.4648008549153;-0.00434265136718751;53.0999998659354;532;0.000208526427741162;
57.5648008546628;-0.004351806640625;53.1999998656829;533;-0.000320428051054478;
57.6648008544104;-0.00434265136718751;53.2999998654304;534;0.000315344572300091;
57.7648008541579;-0.00434265136718751;53.399999865178;535;-0.000137325201649219;
57.8648008539054;-0.00435485839843749;53.4999998649255;536;-0.000193271349417046;
57.9648008536529;-0.0043487548828125;53.599999864673;537;0.000254302518442273;
58.0648008534005;-0.004345703125;53.6999998644205;538;-5.59399450139608E-05;
58.164800853148;-0.0043487548828125;53.7999998641681;539;-7.12105465936475E-05;
58.2648008528955;-0.004351806640625;53.8999998639156;540;-1.0176260730077E-05;
58.364800852643;-0.0043487548828125;53.9999998636631;541;8.13821461633779E-05;
58.4648008523906;-0.004364013671875;54.0999998634106;542;-0.000325522385537624;
58.5648008521381;-0.004345703125;54.1999998631582;543;0.000523891183547676;
58.6648008518856;-0.00435485839843749;54.2999998629057;544;-0.000432332773925737;
58.7648008516331;-0.00435791015625001;54.3999998626532;545;0.000111889203253668;
58.8648008513807;-0.004345703125;54.4999998624007;546;0.000228897581109777;
58.9648008511282;-0.00435791015625001;54.5999998621483;547;-0.000376392825273797;
59.0648008508757;-0.00435485839843749;54.6999998618958;548;0.000239066081121564;
59.1648008506232;-0.0043487548828125;54.7999998616433;549;3.55920783476904E-05;
59.2648008503708;-0.0043609619140625;54.8999998613908;550;-0.000284821988316253;
59.3648008501183;-0.00435791015625001;54.9999998611383;551;0.000218704240978695;
59.4648008498658;-0.00435485839843749;55.0999998608859;552;-2.03338950086618E-05;
59.5648008496133;-0.0043487548828125;55.1999998606334;553;8.64547546370886E-05;
59.6648008493609;-0.0043487548828125;55.2999998603809;554;-6.10311799391638E-05;
59.7648008491084;-0.004351806640625;55.3999998601284;555;-3.56091513822321E-05;
59.8648008488559;-0.0043609619140625;55.499999859876;556;-0.00013223550922703;
59.9648008486034;-0.00435791015625001;55.5999998596235;557;0.00015258182247635;
60.064800848351;-0.0043609619140625;55.699999859371;558;-0.000122056146210525;
60.1648008480985;-0.004351806640625;55.7999998591185;559;0.000213611448998563;
60.264800847846;-0.0043609619140625;55.8999998588661;560;-0.000284821988316253;
60.3648008475935;-0.004351806640625;55.9999998586136;561;0.000305166759062558;
60.4648008473411;-0.004364013671875;56.0999998583611;562;-0.000361120677553117;
60.5648008470886;-0.0043487548828125;56.1999998581086;563;0.000452675973065197;
60.6648008468361;-0.0043609619140625;56.2999998578562;564;-0.000442499702330679;
60.7648008465836;-0.00435791015625001;56.3999998576037;565;0.000249222153797746;
60.8648008463312;-0.004364013671875;56.4999998573512;566;-0.000188183214049786;
60.9648008460787;-0.004364013671875;56.5999998570987;567;8.1375939771533E-05;
61.0648008458262;-0.0043670654296875;56.6999998568463;568;-7.62986746849492E-05;
61.1648008455737;-0.00435485839843749;56.7999998565938;569;0.000259404623648152;
61.2648008453212;-0.00435791015625001;56.8999998563413;570;-0.000208548153750598;
61.3648008450688;-0.004351806640625;56.9999998560888;571;0.000188198740943335;
61.4648008448163;-0.00435791015625001;57.0999998558364;572;-0.000193282219697721;
61.5648008445638;-0.004351806640625;57.1999998555839;573;0.000203452262212522;
61.6648008443113;-0.004351806640625;57.2999998553314;574;-9.15584096219391E-05;
61.7648008440589;-0.00435791015625001;57.3999998550789;575;-9.1553753009066E-05;
61.8648008438064;-0.00435485839843749;57.4999998548265;576;0.000127166014863178;
61.9648008435539;-0.00435791015625001;57.599999854574;577;-0.000111910929263104;
62.0648008433014;-0.00435485839843749;57.6999998543215;578;0.000101739329693373;
62.164800843049;-0.0043609619140625;57.799999854069;579;-0.000157680828124285;
62.2648008427965;-0.0043792724609375;57.8999998538166;580;-0.000254311831668019;
62.364800842544;-0.00437011718749999;57.9999998535641;581;0.000361128448275849;
62.4648008422915;-0.004364013671875;58.0999998533116;582;-5.59570180485025E-05;
62.5648008420391;-0.004376220703125;58.1999998530591;583;-0.000264477246673778;
62.6648008417866;-0.0043609619140625;58.2999998528067;584;0.000442507473053411;
62.7648008415341;-0.0043670654296875;58.3999998525542;585;-0.000330613635014743;
62.8648008412816;-0.0043670654296875;58.4999998523017;586;0.000122068566270173;
62.9648008410292;-0.0043609619140625;58.5999998520492;587;9.15584096219391E-05;
63.0648008407767;-0.004364013671875;58.6999998517967;588;-0.000127159801195376;
63.1648008405242;-0.00437011718749999;58.7999998515443;589;-5.59446016268339E-05;
63.2648008402717;-0.00437011718749999;58.8999998512918;590;6.10296265222132E-05;
63.3648008400193;-0.00437011718749999;58.9999998510393;591;-2.03463132493198E-05;
63.4648008397668;-0.00437011718749999;59.0999998507868;592;-1.5522058083306E-09;
63.5648008395143;-0.0043609619140625;59.1999998505344;593;0.000167847771081142;
63.6648008392618;-0.00438537597656249;59.2999998502819;594;-0.000554399797692895;
63.7648008390094;-0.004364013671875;59.3999998500294;595;0.000706984719727188;
63.8648008387569;-0.00437011718749999;59.4999998497769;596;-0.000442499702330679;
63.9648008385044;-0.0043670654296875;59.5999998495245;597;0.000198351714061573;
64.0648008382519;-0.00437316894531251;59.699999849272;598;-0.000167843114468269;
64.1648008379995;-0.004376220703125;59.7999998490195;599;2.54422047873959E-05;
64.264800837747;-0.004376220703125;59.899999848767;600;1.52581824295339E-05;
