Time (s)	WE(1).Potential (V)	Corrected time (s)	Index	dWE(1).Potential/dt (V/s)	Cutoffs	OCP value (V)
1.31574899667805	-0.0099517822265625	0	1	0	dWE(1).Potential/dt < 1E-06 V/s	-0.00990929697074142
1.41574899642558	-0.00995483398437499	0.0999999997475243	2	-3.05194698739797E-05	dWE(1).Potential/dt < 1E-06 V/s	
1.5157489961731	-0.00995788574218751	0.199999999495049	3	-3.05055000353605E-05	dWE(1).Potential/dt < 1E-06 V/s	
1.61574899592063	-0.00994262695312501	0.299999999242573	4	0.000305179186398163		
1.71574899566815	-0.0099517822265625	0.399999998990097	5	-0.000356044969521463	dWE(1).Potential/dt < 1E-06 V/s	
1.81574899541567	-0.00995483398437499	0.499999998737621	6	0.000101731566246599		
1.9157489951632	-0.00994873046875	0.599999998485146	7	0.000116980438178871		
2.01574899491072	-0.00994873046875	0.69999999823267	8	-8.13821461633779E-05	dWE(1).Potential/dt < 1E-06 V/s	
2.11574899465825	-0.0099517822265625	0.799999997980194	9	-3.56076016032603E-05	dWE(1).Potential/dt < 1E-06 V/s	
2.21574899440577	-0.0099517822265625	0.899999997727718	10	3.56138079951052E-05		
2.3157489941533	-0.00994262695312501	0.999999997475243	11	0.000157691683853045		
2.41574899390082	-0.00994873046875	1.09999999722277	12	-0.000218721310375258	dWE(1).Potential/dt < 1E-06 V/s	
2.51574899364834	-0.0099517822265625	1.19999999697029	13	4.57745481980965E-05		
2.61574899339587	-0.0099456787109375	1.29999999671782	14	0.000127175328088924		
2.71574899314339	-0.00994873046875	1.39999999646534	15	-0.000137351584271528	dWE(1).Potential/dt < 1E-06 V/s	
2.81574899289092	-0.00994262695312501	1.49999999621286	16	0.000167864840477705		
2.91574899263844	-0.00993957519531249	1.59999999596039	17	-2.5446861400269E-05	dWE(1).Potential/dt < 1E-06 V/s	
3.01574899238597	-0.00994873046875	1.69999999570791	18	-0.000183098192792386	dWE(1).Potential/dt < 1E-06 V/s	
3.11574899213349	-0.00994262695312501	1.79999999545544	19	0.000228888267884031		
3.21574899188101	-0.00994262695312501	1.89999999520296	20	-0.000101719146186952	dWE(1).Potential/dt < 1E-06 V/s	
3.31574899162854	-0.0099456787109375	1.99999999495049	21	-3.56013915734366E-05	dWE(1).Potential/dt < 1E-06 V/s	
3.41574899137606	-0.00993957519531249	2.09999999469801	22	0.000147478174767457		
3.51574899112359	-0.0099456787109375	2.19999999444553	23	-0.0001932620361913	dWE(1).Potential/dt < 1E-06 V/s	
3.61574899087111	-0.00994262695312501	2.29999999419306	24	0.000147493701661006		
3.71574899061864	-0.0099334716796875	2.39999999394058	25	0.000111901616037358		
3.81574899036616	-0.0099365234375	2.49999999368811	26	-0.000152591135702096	dWE(1).Potential/dt < 1E-06 V/s	
3.91574899011368	-0.00993957519531249	2.59999999343563	27	1.0176260730077E-05		
4.01574898986121	-0.0099365234375	2.69999999318316	28	8.13728329376318E-05		
4.11574898960873	-0.0099334716796875	2.79999999293068	29	1.01855739558232E-05		
4.21574898935626	-0.009930419921875	2.8999999926782	30	3.05163648590678E-05		
4.31574898910378	-0.00994262695312501	2.99999999242573	31	-0.000249231467023492	dWE(1).Potential/dt < 1E-06 V/s	
4.41574898885131	-0.009930419921875	3.09999999217325	32	0.000376391282770783		
4.51574898859883	-0.0099365234375	3.19999999192078	33	-0.000295021542115137	dWE(1).Potential/dt < 1E-06 V/s	
4.61574898834635	-0.009930419921875	3.2999999916683	34	0.000223821858526208		
4.71574898809388	-0.0099365234375	3.39999999141583	35	-0.000203478659386747	dWE(1).Potential/dt < 1E-06 V/s	
4.8157489878414	-0.0099365234375	3.49999999116335	36	9.15708296815865E-05		
4.91574898758893	-0.0099365234375	3.59999999091087	37	-2.03432082344079E-05	dWE(1).Potential/dt < 1E-06 V/s	
5.01574898733645	-0.0099334716796875	3.6999999906584	38	5.59570180485025E-05		
5.11574898708398	-0.00992431640624999	3.79999999040592	39	0.000132226196001284		
5.2157489868315	-0.0099365234375	3.89999999015345	40	-0.000320434250170365	dWE(1).Potential/dt < 1E-06 V/s	
5.31574898657902	-0.009930419921875	3.99999998990097	41	0.000284848385490477		
5.41574898632655	-0.00992736816406251	4.0999999896485	42	-5.5960121244425E-05	dWE(1).Potential/dt < 1E-06 V/s	
5.51574898607407	-0.00992431640624999	4.19999998939602	43	4.06833132728934E-05		
5.6157489858216	-0.00992431640624999	4.29999998914354	44	-2.5434443159611E-05	dWE(1).Potential/dt < 1E-06 V/s	
5.71574898556912	-0.009918212890625	4.39999998889107	45	0.000122071665828116		
5.81574898531665	-0.00992736816406251	4.49999998863859	46	-0.000239045897615142	dWE(1).Potential/dt < 1E-06 V/s	
5.91574898506417	-0.0099212646484375	4.59999998838612	47	0.000239045897615142		
6.01574898481169	-0.0099151611328125	4.69999998813364	48	1.01948871815694E-05		
6.11574898455922	-0.009918212890625	4.79999998788117	49	-0.000106835221231449	dWE(1).Potential/dt < 1E-06 V/s	
6.21574898430674	-0.00991210937500001	4.89999998762869	50	0.000167864840477705		
6.31574898405427	-0.0099212646484375	4.99999998737621	51	-0.00024923769524321	dWE(1).Potential/dt < 1E-06 V/s	
6.41574898380179	-0.009918212890625	5.09999998712374	52	0.000183123032911681		
6.51574898354932	-0.00990905761718749	5.19999998687126	53	0.000101706733403262		
6.61574898329684	-0.009918212890625	5.29999998661879	54	-0.000264480331679806	dWE(1).Potential/dt < 1E-06 V/s	
6.71574898304436	-0.0099151611328125	5.39999998636631	55	0.000193280662642792		
6.81574898279189	-0.00991210937500001	5.49999998611383	56	-1.0176260730077E-05	dWE(1).Potential/dt < 1E-06 V/s	
6.91574898253941	-0.009906005859375	5.59999998586136	57	8.64640678628348E-05		
7.01574898228694	-0.009906005859375	5.69999998560888	58	-6.10234164923895E-05	dWE(1).Potential/dt < 1E-06 V/s	
7.11574898203446	-0.00991210937500001	5.79999998535641	59	-9.15366763365455E-05	dWE(1).Potential/dt < 1E-06 V/s	
7.21574898178199	-0.009918212890625	5.89999998510393	60	-4.07019397243857E-05	dWE(1).Potential/dt < 1E-06 V/s	
7.31574898152951	-0.00990905761718749	5.99999998485146	61	0.000218702683923766		
7.41574898127703	-0.0099151611328125	6.09999998459898	62	-0.000239045897615142	dWE(1).Potential/dt < 1E-06 V/s	
7.51574898102456	-0.0099029541015625	6.1999999843465	63	0.000325503759086132		
7.61574898077208	-0.0099151611328125	6.29999998409403	64	-0.000386542698834091	dWE(1).Potential/dt < 1E-06 V/s	
7.71574898051961	-0.009906005859375	6.39999998384155	65	0.000350931979482993		
7.81574898026713	-0.009906005859375	6.49999998358908	66	-0.000147484388435259	dWE(1).Potential/dt < 1E-06 V/s	
7.91574898001466	-0.009906005859375	6.5999999833366	67	3.05194698739797E-05		
8.01574897976218	-0.009906005859375	6.69999998308413	68	3.1044116166612E-09	dWE(1).Potential/dt < 1E-06 V/s	
8.1157489795097	-0.0099029541015625	6.79999998283165	69	5.59570180485025E-05		
8.21574897925723	-0.009906005859375	6.89999998257917	70	-9.1564616013784E-05	dWE(1).Potential/dt < 1E-06 V/s	
8.31574897900475	-0.00989685058593751	6.9999999823267	71	0.000213648701901548		
8.41574897875228	-0.00989379882812499	7.09999998207422	72	-6.10575661994517E-05	dWE(1).Potential/dt < 1E-06 V/s	
8.5157489784998	-0.0099029541015625	7.19999998182175	73	-0.000172925036167726	dWE(1).Potential/dt < 1E-06 V/s	
8.61574897824732	-0.00989685058593751	7.29999998156927	74	0.000228888267884031		
8.71574897799485	-0.0098907470703125	7.3999999813168	75	1.01638433989137E-05		
8.81574897774237	-0.00989379882812499	7.49999998106432	76	-0.00010680417472031	dWE(1).Potential/dt < 1E-06 V/s	
8.9157489774899	-0.00989685058593751	7.59999998081184	77	6.20882323332239E-09	dWE(1).Potential/dt < 1E-06 V/s	
9.01574897723742	-0.0098876953125	7.69999998055937	78	0.000193271349417046		
9.11574897698495	-0.0098907470703125	7.79999998030689	79	-0.000172934349393472	dWE(1).Potential/dt < 1E-06 V/s	
9.21574897673247	-0.00989685058593751	7.89999998005442	80	-4.57528185506817E-05	dWE(1).Potential/dt < 1E-06 V/s	
9.31574897647999	-0.00989379882812499	7.99999997980194	81	0.000116961811727379		
9.41574897622752	-0.00989685058593751	8.09999997954947	82	-0.000111879890027922	dWE(1).Potential/dt < 1E-06 V/s	
9.51574897597504	-0.00989379882812499	8.19999997929699	83	0.000101706733403262		
9.61574897572257	-0.00989685058593751	8.29999997904451	84	-0.000101706733403262	dWE(1).Potential/dt < 1E-06 V/s	
9.71574897547009	-0.00989379882812499	8.39999997879204	85	0.000101706733403262		
9.81574897521762	-0.00989685058593751	8.49999997853956	86	-0.000101706733403262	dWE(1).Potential/dt < 1E-06 V/s	
9.91574897496514	-0.0098907470703125	8.59999997828709	87	0.000157660644617863		
10.0157489747127	-0.00989990234375	8.69999997803461	88	-0.000249203527346253	dWE(1).Potential/dt < 1E-06 V/s	
10.1157489744602	-0.0098876953125	8.79999997778214	89	0.000350928894476965		
10.2157489742077	-0.0098846435546875	8.89999997752966	90	-0.000116971124953125	dWE(1).Potential/dt < 1E-06 V/s	
10.3157489739552	-0.00989379882812499	8.99999997727718	91	-0.000162786032888107	dWE(1).Potential/dt < 1E-06 V/s	
10.4157489737028	-0.00989685058593751	9.09999997702471	92	6.10575661994517E-05		
10.5157489734503	-0.0098846435546875	9.19999997677223	93	0.000228878954658285		
10.6157489731978	-0.00989685058593751	9.29999997651976	94	-0.000376385054551065	dWE(1).Potential/dt < 1E-06 V/s	
10.7157489729453	-0.00989379882812499	9.39999997626728	95	0.000239045897615142		
10.8157489726929	-0.0098907470703125	9.49999997601481	96	-2.03432082344079E-05	dWE(1).Potential/dt < 1E-06 V/s	
10.9157489724404	-0.00989379882812499	9.59999997576233	97	-8.13790466054343E-05	dWE(1).Potential/dt < 1E-06 V/s	
11.0157489721879	-0.0098876953125	9.69999997550985	98	0.000157673057401553		
11.1157489719354	-0.00989379882812499	9.79999997525738	99	-0.000193289975868538	dWE(1).Potential/dt < 1E-06 V/s	
11.215748971683	-0.0098876953125	9.8999999750049	100	0.000203456918825395		
11.3157489714305	-0.0098907470703125	9.99999997475243	101	-0.000147509214002639	dWE(1).Potential/dt < 1E-06 V/s	
11.415748971178	-0.0098907470703125	10.0999999745	102	5.5960121244425E-05		
11.5157489709255	-0.00989379882812499	10.1999999742475	103	-6.61239682813175E-05	dWE(1).Potential/dt < 1E-06 V/s	
11.6157489706731	-0.0098876953125	10.299999973995	104	0.000147499900776893		
11.7157489704206	-0.00989379882812499	10.3999999737425	105	-0.000193289975868538	dWE(1).Potential/dt < 1E-06 V/s	
11.8157489701681	-0.0098846435546875	10.49999997349	106	0.00025941085186787		
11.9157489699156	-0.0098846435546875	10.5999999732376	107	-0.000127169114421122	dWE(1).Potential/dt < 1E-06 V/s	
12.0157489696632	-0.00988159179687501	10.6999999729851	108	8.64702815306373E-05		
12.1157489694107	-0.00988159179687501	10.7999999727326	109	-3.55920783476904E-05	dWE(1).Potential/dt < 1E-06 V/s	
12.2157489691582	-0.0098846435546875	10.8999999724801	110	-4.57745481980965E-05	dWE(1).Potential/dt < 1E-06 V/s	
12.3157489689057	-0.0098876953125	10.9999999722277	111	-2.03587314899778E-05	dWE(1).Potential/dt < 1E-06 V/s	
12.4157489686532	-0.0098846435546875	11.0999999719752	112	8.13914593891241E-05		
12.5157489684008	-0.0098846435546875	11.1999999717227	113	-4.57869646197651E-05	dWE(1).Potential/dt < 1E-06 V/s	
12.6157489681483	-0.0098907470703125	11.2999999714702	114	-0.000101737772638444	dWE(1).Potential/dt < 1E-06 V/s	
12.7157489678958	-0.0098846435546875	11.3999999712178	115	0.000183132346137427		
12.8157489676433	-0.0098876953125	11.4999999709653	116	-0.000147524740896188	dWE(1).Potential/dt < 1E-06 V/s	
12.9157489673909	-0.0098876953125	11.5999999707128	117	5.59570180485025E-05		
13.0157489671384	-0.0098907470703125	11.6999999704603	118	-6.61270678392611E-05	dWE(1).Potential/dt < 1E-06 V/s	
13.1157489668859	-0.0098876953125	11.7999999702079	119	9.15677228476852E-05		
13.2157489666334	-0.0098846435546875	11.8999999699554	120	1.01700525192427E-05		
13.315748966381	-0.0098907470703125	11.9999999697029	121	-0.000137348484713584	dWE(1).Potential/dt < 1E-06 V/s	
13.4157489661285	-0.0098846435546875	12.0999999694504	122	0.000193305502762087		
13.515748965876	-0.0098907470703125	12.199999969198	123	-0.000203478659386747	dWE(1).Potential/dt < 1E-06 V/s	
13.6157489656235	-0.0098876953125	12.2999999689455	124	0.000147524740896188		
13.7157489653711	-0.0098907470703125	12.399999968693	125	-0.000111910929263104	dWE(1).Potential/dt < 1E-06 V/s	
13.8157489651186	-0.0098907470703125	12.4999999684405	126	4.57869646197651E-05		
13.9157489648661	-0.0098876953125	12.5999999681881	127	4.57838614238426E-05		
14.0157489646136	-0.0098907470703125	12.6999999679356	128	-9.1564616013784E-05	dWE(1).Potential/dt < 1E-06 V/s	
14.1157489643612	-0.0098846435546875	12.7999999676831	129	0.000157694797962904		
14.2157489641087	-0.00988159179687501	12.8999999674306	130	-2.54437563853571E-05	dWE(1).Potential/dt < 1E-06 V/s	
14.3157489638562	-0.0098907470703125	12.9999999671782	131	-0.000183107506018132	dWE(1).Potential/dt < 1E-06 V/s	
14.4157489636037	-0.00988159179687501	13.0999999669257	132	0.000284857698716223		
14.5157489633513	-0.0098876953125	13.1999999666732	133	-0.000249240780249238	dWE(1).Potential/dt < 1E-06 V/s	
14.6157489630988	-0.00988159179687501	13.2999999664207	134	0.000213636289117858		
14.7157489628463	-0.0098846435546875	13.3999999661683	135	-0.000147503014886752	dWE(1).Potential/dt < 1E-06 V/s	
14.8157489625938	-0.00987854003906249	13.4999999659158	136	0.000167824488016777		
14.9157489623414	-0.0098846435546875	13.5999999656633	137	-0.0001932620361913	dWE(1).Potential/dt < 1E-06 V/s	
15.0157489620889	-0.00988159179687501	13.6999999654108	138	0.000147493701661006		
15.1157489618364	-0.00988159179687501	13.7999999651583	139	-5.59352884010877E-05	dWE(1).Potential/dt < 1E-06 V/s	
15.2157489615839	-0.00987854003906249	13.8999999649059	140	6.61084413877688E-05		
15.3157489613315	-0.00987548828125	13.9999999646534	141	2.03463132493198E-05		
15.415748961079	-0.0098876953125	14.0999999644009	142	-0.000249215954681858	dWE(1).Potential/dt < 1E-06 V/s	
15.5157489608265	-0.00987548828125	14.1999999641484	143	0.00037637265631929		
15.615748960574	-0.0098846435546875	14.299999963896	144	-0.000350931979482993	dWE(1).Potential/dt < 1E-06 V/s	
15.7157489603215	-0.00988159179687501	14.3999999636435	145	0.000203438292373903		
15.8157489600691	-0.00988159179687501	14.499999963391	146	-6.61084413877688E-05	dWE(1).Potential/dt < 1E-06 V/s	
15.9157489598166	-0.0098876953125	14.5999999631385	147	-0.000101728459412698	dWE(1).Potential/dt < 1E-06 V/s	
16.0157489595641	-0.0098724365234375	14.6999999628861	148	0.000350953720044345		
16.1157489593116	-0.0098876953125	14.7999999626336	149	-0.000478110421681777	dWE(1).Potential/dt < 1E-06 V/s	
16.2157489590592	-0.0098846435546875	14.8999999623811	150	0.000284835958154872		
16.3157489588067	-0.00987854003906249	14.9999999621286	151	2.54065034823725E-05		
16.4157489585542	-0.00987854003906249	15.0999999618762	152	-6.10327297181357E-05	dWE(1).Potential/dt < 1E-06 V/s	
16.5157489583017	-0.00988159179687501	15.1999999616237	153	-3.55920783476904E-05	dWE(1).Potential/dt < 1E-06 V/s	
16.6157489580493	-0.00988159179687501	15.2999999613712	154	3.56076016032603E-05		
16.7157489577968	-0.00987854003906249	15.3999999611187	155	4.57652349723503E-05		
16.8157489575443	-0.00987548828125	15.4999999608663	156	2.03463132493198E-05		
16.9157489572918	-0.00988159179687501	15.5999999606138	157	-0.000137308117700741	dWE(1).Potential/dt < 1E-06 V/s	
17.0157489570394	-0.00988159179687501	15.6999999603613	158	8.13790466054343E-05		
17.1157489567869	-0.00988159179687501	15.7999999601088	159	-2.03370000235736E-05	dWE(1).Potential/dt < 1E-06 V/s	
17.2157489565344	-0.0098846435546875	15.8999999598564	160	-5.59477048227564E-05	dWE(1).Potential/dt < 1E-06 V/s	
17.3157489562819	-0.0098724365234375	15.9999999596039	161	0.000259385997196659		
17.4157489560295	-0.00987548828125	16.0999999593514	162	-0.000208535740966909	dWE(1).Potential/dt < 1E-06 V/s	
17.515748955777	-0.00987548828125	16.1999999590989	163	7.63033312978223E-05		
17.6157489555245	-0.0098724365234375	16.2999999588465	164	4.57838614238426E-05		
17.715748955272	-0.0098724365234375	16.399999958594	165	-3.56107047991827E-05	dWE(1).Potential/dt < 1E-06 V/s	
17.8157489550196	-0.0098724365234375	16.4999999583415	166	1.01731566246599E-05		
17.9157489547671	-0.00987548828125	16.599999958089	167	-5.59539148525801E-05	dWE(1).Potential/dt < 1E-06 V/s	
18.0157489545146	-0.00987548828125	16.6999999578366	168	3.56138079951052E-05		
18.1157489542621	-0.00988159179687501	16.7999999575841	169	-0.000122053046652582	dWE(1).Potential/dt < 1E-06 V/s	
18.2157489540097	-0.00987548828125	16.8999999573316	170	0.00018308887956664		
18.3157489537572	-0.0098724365234375	16.9999999570791	171	-3.55858683178667E-05	dWE(1).Potential/dt < 1E-06 V/s	
18.4157489535047	-0.00987854003906249	17.0999999568267	172	-0.000127175328088924	dWE(1).Potential/dt < 1E-06 V/s	
18.5157489532522	-0.00987548828125	17.1999999565742	173	0.000137329858262092		
18.6157489529998	-0.00987854003906249	17.2999999563217	174	-0.000111895409645513	dWE(1).Potential/dt < 1E-06 V/s	
18.7157489527473	-0.00988159179687501	17.3999999560692	175	-1.01638433989137E-05	dWE(1).Potential/dt < 1E-06 V/s	
18.8157489524948	-0.00987854003906249	17.4999999558167	176	8.13635197118856E-05		
18.9157489522423	-0.00987854003906249	17.5999999555643	177	-4.57776513940189E-05	dWE(1).Potential/dt < 1E-06 V/s	
19.0157489519898	-0.00988159179687501	17.6999999553118	178	-4.57652349723503E-05	dWE(1).Potential/dt < 1E-06 V/s	
19.1157489517374	-0.00987548828125	17.7999999550593	179	0.000147490587551147		
19.2157489514849	-0.00988159179687501	17.8999999548068	180	-0.00019324962340761	dWE(1).Potential/dt < 1E-06 V/s	
19.3157489512324	-0.00987854003906249	17.9999999545544	181	0.000147478174767457		
19.4157489509799	-0.00987854003906249	18.0999999543019	182	-5.59508080186788E-05	dWE(1).Potential/dt < 1E-06 V/s	
19.5157489507275	-0.00987548828125	18.1999999540494	183	6.6117754613515E-05		
19.615748950475	-0.00987854003906249	18.2999999537969	184	-9.15490963961929E-05	dWE(1).Potential/dt < 1E-06 V/s	
19.7157489502225	-0.00987548828125	18.3999999535445	185	0.000101719146186952		
19.81574894997	-0.0098724365234375	18.499999953292	186	1.01855739558232E-05		
19.9157489497176	-0.0098724365234375	18.5999999530395	187	-2.54375481745228E-05	dWE(1).Potential/dt < 1E-06 V/s	
20.0157489494651	-0.00987548828125	18.699999952787	188	-4.57807582279202E-05	dWE(1).Potential/dt < 1E-06 V/s	
20.1157489492126	-0.009869384765625	18.7999999525346	189	0.000147521641338244		
20.2157489489601	-0.00986633300781251	18.8999999522821	190	-2.54437563853571E-05	dWE(1).Potential/dt < 1E-06 V/s	
20.3157489487077	-0.0098724365234375	18.9999999520296	191	-0.000127153587527573	dWE(1).Potential/dt < 1E-06 V/s	
20.4157489484552	-0.009869384765625	19.0999999517771	192	0.000137336057377979		
20.5157489482027	-0.00987548828125	19.1999999515247	193	-0.000167867954587564	dWE(1).Potential/dt < 1E-06 V/s	
20.6157489479502	-0.009869384765625	19.2999999512722	194	0.000193305502762087		
20.7157489476978	-0.00988159179687501	19.3999999510197	195	-0.000315361656248569	dWE(1).Potential/dt < 1E-06 V/s	
20.8157489474453	-0.0098724365234375	19.4999999507672	196	0.000330610520904884		
20.9157489471928	-0.009869384765625	19.5999999505148	197	-9.15459895622917E-05	dWE(1).Potential/dt < 1E-06 V/s	
21.0157489469403	-0.009869384765625	19.6999999502623	198	-5.09744359078468E-06	dWE(1).Potential/dt < 1E-06 V/s	
21.1157489466879	-0.00987548828125	19.7999999500098	199	-0.000101737772638444	dWE(1).Potential/dt < 1E-06 V/s	
21.2157489464354	-0.009869384765625	19.8999999497573	200	0.000183132346137427		
21.3157489461829	-0.00987548828125	19.9999999495049	201	-0.000203478659386747	dWE(1).Potential/dt < 1E-06 V/s	
21.4157489459304	-0.00987548828125	20.0999999492524	202	9.15708296815865E-05		
21.515748945678	-0.00986633300781251	20.1999999489999	203	0.000147518527228385		
21.6157489454255	-0.00987548828125	20.2999999487474	204	-0.000274675228865817	dWE(1).Potential/dt < 1E-06 V/s	
21.715748945173	-0.0098846435546875	20.399999948495	205	-3.04946352116531E-05	dWE(1).Potential/dt < 1E-06 V/s	
21.8157489449205	-0.00987854003906249	20.4999999482425	206	0.000188158388482407		
21.9157489446681	-0.00987548828125	20.59999994799	207	-4.57683381682727E-05	dWE(1).Potential/dt < 1E-06 V/s	
22.0157489444156	-0.009869384765625	20.6999999477375	208	9.6655850938987E-05		
22.1157489441631	-0.00987548828125	20.799999947485	209	-0.000172959189512767	dWE(1).Potential/dt < 1E-06 V/s	
22.2157489439106	-0.00987548828125	20.8999999472326	210	9.15708296815865E-05		
22.3157489436582	-0.0098724365234375	20.9999999469801	211	3.56107047991827E-05		
22.4157489434057	-0.00987548828125	21.0999999467276	212	-9.1564616013784E-05	dWE(1).Potential/dt < 1E-06 V/s	
22.5157489431532	-0.0098724365234375	21.1999999464751	213	0.000101740879472345		
22.6157489429007	-0.00987548828125	21.2999999462227	214	-0.000101737772638444	dWE(1).Potential/dt < 1E-06 V/s	
22.7157489426482	-0.0098724365234375	21.3999999459702	215	0.000101740879472345		
22.8157489423958	-0.00987854003906249	21.4999999457177	216	-0.000157691683853045	dWE(1).Potential/dt < 1E-06 V/s	
22.9157489421433	-0.0098724365234375	21.5999999454652	217	0.000193283762200736		
23.0157489418908	-0.00987548828125	21.6999999452128	218	-0.000147509214002639	dWE(1).Potential/dt < 1E-06 V/s	
23.1157489416383	-0.00987548828125	21.7999999449603	219	5.5960121244425E-05		
23.2157489413859	-0.0098724365234375	21.8999999447078	220	4.57838614238426E-05		
23.3157489411334	-0.0098846435546875	21.9999999444553	221	-0.000259401538642123	dWE(1).Potential/dt < 1E-06 V/s	
23.4157489408809	-0.00987548828125	22.0999999442029	222	0.000320415623718873		
23.5157489406284	-0.0098724365234375	22.1999999439504	223	-9.15304699447006E-05	dWE(1).Potential/dt < 1E-06 V/s	
23.615748940376	-0.0098846435546875	22.2999999436979	224	-0.000228885153774172	dWE(1).Potential/dt < 1E-06 V/s	
23.7157489401235	-0.00987548828125	22.3999999434454	225	0.000320415623718873		
23.815748939871	-0.0098724365234375	22.499999943193	226	-9.15304699447006E-05	dWE(1).Potential/dt < 1E-06 V/s	
23.9157489396185	-0.00988159179687501	22.5999999429405	227	-0.000172931249835528	dWE(1).Potential/dt < 1E-06 V/s	
24.0157489393661	-0.00987548828125	22.699999942688	228	0.000228872740990482		
24.1157489391136	-0.00987548828125	22.7999999424355	229	-0.000101712939795107	dWE(1).Potential/dt < 1E-06 V/s	
24.2157489388611	-0.00987854003906249	22.8999999421831	230	-3.56076016032603E-05	dWE(1).Potential/dt < 1E-06 V/s	
24.3157489386086	-0.0098724365234375	22.9999999419306	231	0.000147499900776893		
24.4157489383562	-0.00987548828125	23.0999999416781	232	-0.000137336057377979	dWE(1).Potential/dt < 1E-06 V/s	
24.5157489381037	-0.00987854003906249	23.1999999414256	233	6.20882323332239E-09	dWE(1).Potential/dt < 1E-06 V/s	
24.6157489378512	-0.0098724365234375	23.2999999411732	234	0.000137326744152233		
24.7157489375987	-0.0098724365234375	23.3999999409207	235	-8.13821461633779E-05	dWE(1).Potential/dt < 1E-06 V/s	
24.8157489373463	-0.00988159179687501	23.4999999406682	236	-0.000147490587551147	dWE(1).Potential/dt < 1E-06 V/s	
24.9157489370938	-0.009869384765625	23.5999999404157	237	0.000330607406795025		
25.0157489368413	-0.00987854003906249	23.6999999401633	238	-0.000340802303981036	dWE(1).Potential/dt < 1E-06 V/s	
25.1157489365888	-0.00987548828125	23.7999999399108	239	0.000203456918825395		
25.2157489363364	-0.00987548828125	23.8999999396583	240	-6.61146550555713E-05	dWE(1).Potential/dt < 1E-06 V/s	
25.3157489360839	-0.00987548828125	23.9999999394058	241	1.0176260730077E-05		
25.4157489358314	-0.00987548828125	24.0999999391533	242	3.1044116166612E-09	dWE(1).Potential/dt < 1E-06 V/s	
25.5157489355789	-0.0098724365234375	24.1999999389009	243	5.59570180485025E-05		
25.6157489353265	-0.0098724365234375	24.2999999386484	244	-3.56107047991827E-05	dWE(1).Potential/dt < 1E-06 V/s	
25.715748935074	-0.00987548828125	24.3999999383959	245	-4.57807582279202E-05	dWE(1).Potential/dt < 1E-06 V/s	
25.8157489348215	-0.00987548828125	24.4999999381434	246	3.56138079951052E-05		
25.915748934569	-0.009869384765625	24.599999937891	247	0.000101737772638444		
26.0157489343165	-0.00987854003906249	24.6999999376385	248	-0.00023908625007607	dWE(1).Potential/dt < 1E-06 V/s	
26.1157489340641	-0.0098724365234375	24.799999937386	249	0.000239067623624578		
26.2157489338116	-0.0098724365234375	24.8999999371335	250	-0.000101728459412698	dWE(1).Potential/dt < 1E-06 V/s	
26.3157489335591	-0.00986633300781251	24.9999999368811	251	0.000132254135678522		
26.4157489333066	-0.00987854003906249	25.0999999366286	252	-0.000295018428005278	dWE(1).Potential/dt < 1E-06 V/s	
26.5157489330542	-0.00987548828125	25.1999999363761	253	0.000218711997149512		
26.6157489328017	-0.00986633300781251	25.2999999361236	254	9.15739292395301E-05		
26.7157489325492	-0.009869384765625	25.3999999358712	255	-0.000152594249811955	dWE(1).Potential/dt < 1E-06 V/s	
26.8157489322967	-0.0098724365234375	25.4999999356187	256	1.01607392934966E-05		
26.9157489320443	-0.0098724365234375	25.5999999353662	257	2.54375481745228E-05		
27.0157489317918	-0.0098724365234375	25.6999999351137	258	-1.01731566246599E-05	dWE(1).Potential/dt < 1E-06 V/s	
27.1157489315393	-0.00986328124999999	25.7999999348613	259	0.000167836900800467		
27.2157489312868	-0.00987548828125	25.8999999346088	260	-0.000330607406795025	dWE(1).Potential/dt < 1E-06 V/s	
27.3157489310344	-0.00988159179687501	25.9999999343563	261	6.10575661994517E-05		
27.4157489307819	-0.00987548828125	26.0999999341038	262	0.000142399352625944		
27.5157489305294	-0.00986328124999999	26.1999999338514	263	0.000132251036120579		
27.6157489302769	-0.0098724365234375	26.2999999335989	264	-0.000289921008516103	dWE(1).Potential/dt < 1E-06 V/s	
27.7157489300245	-0.0098724365234375	26.3999999333464	265	0.000147499900776893		
27.815748929772	-0.0098724365234375	26.4999999330939	266	-3.05163648590678E-05	dWE(1).Potential/dt < 1E-06 V/s	
27.9157489295195	-0.00986633300781251	26.5999999328415	267	0.00011190782970516		
28.015748929267	-0.009869384765625	26.699999932589	268	-0.000127156701637432	dWE(1).Potential/dt < 1E-06 V/s	
28.1157489290146	-0.0098724365234375	26.7999999323365	269	-1.24176464666448E-08	dWE(1).Potential/dt < 1E-06 V/s	
28.2157489287621	-0.00987548828125	26.899999932084	270	-3.05163648590678E-05	dWE(1).Potential/dt < 1E-06 V/s	
28.3157489285096	-0.009869384765625	26.9999999318316	271	0.000137348484713584		
28.4157489282571	-0.00987548828125	27.0999999315791	272	-0.000193305502762087	dWE(1).Potential/dt < 1E-06 V/s	
28.5157489280047	-0.009869384765625	27.1999999313266	273	0.000203478659386747		
28.6157489277522	-0.00986328124999999	27.2999999310741	274	2.0312165361247E-05		
28.7157489274997	-0.009869384765625	27.3999999308217	275	-0.00016274256631732	dWE(1).Potential/dt < 1E-06 V/s	
28.8157489272472	-0.009869384765625	27.4999999305692	276	9.15397831704468E-05		
28.9157489269948	-0.009869384765625	27.5999999303167	277	-2.03463132493198E-05	dWE(1).Potential/dt < 1E-06 V/s	
29.0157489267423	-0.00988159179687501	27.6999999300642	278	-0.000223793918848969	dWE(1).Potential/dt < 1E-06 V/s	
29.1157489264898	-0.0098724365234375	27.7999999298117	279	0.000310264207655564		
29.2157489262373	-0.009869384765625	27.8999999295593	280	-9.15459895622917E-05	dWE(1).Potential/dt < 1E-06 V/s	
29.3157489259848	-0.0098724365234375	27.9999999293068	281	-6.10513598076068E-05	dWE(1).Potential/dt < 1E-06 V/s	
29.4157489257324	-0.00987548828125	28.0999999290543	282	-1.01700525192427E-05	dWE(1).Potential/dt < 1E-06 V/s	
29.5157489254799	-0.00987548828125	28.1999999288018	283	2.54406531894347E-05		
29.6157489252274	-0.00987548828125	28.2999999285494	284	-1.01700525192427E-05	dWE(1).Potential/dt < 1E-06 V/s	
29.7157489249749	-0.0098846435546875	28.3999999282969	285	-0.000167833801242523	dWE(1).Potential/dt < 1E-06 V/s	
29.8157489247225	-0.00987854003906249	28.4999999280444	286	0.000218677858356386		
29.91574892447	-0.00987548828125	28.5999999277919	287	-4.57683381682727E-05	dWE(1).Potential/dt < 1E-06 V/s	
30.0157489242175	-0.00987854003906249	28.6999999275395	288	-7.12058899807744E-05	dWE(1).Potential/dt < 1E-06 V/s	
30.115748923965	-0.00986633300781251	28.799999927287	289	0.000269580894382671		
30.2157489237126	-0.0098724365234375	28.8999999270345	290	-0.000264492759015411	dWE(1).Potential/dt < 1E-06 V/s	
30.3157489234601	-0.00988159179687501	28.999999926782	291	-5.59352884010877E-05	dWE(1).Potential/dt < 1E-06 V/s	
30.4157489232076	-0.00987548828125	29.0999999265296	292	0.000198353271116503		
30.5157489229551	-0.00987854003906249	29.1999999262771	293	-0.000157666858285666	dWE(1).Potential/dt < 1E-06 V/s	
30.6157489227027	-0.00987548828125	29.2999999260246	294	0.000111889203253668		
30.7157489224502	-0.00988159179687501	29.3999999257721	295	-0.000157651331392117	dWE(1).Potential/dt < 1E-06 V/s	
30.8157489221977	-0.00987548828125	29.4999999255197	296	0.0001932620361913		
30.9157489219452	-0.00987548828125	29.5999999252672	297	-9.15397831704468E-05	dWE(1).Potential/dt < 1E-06 V/s	
31.0157489216928	-0.00987854003906249	29.6999999250147	298	-3.56076016032603E-05	dWE(1).Potential/dt < 1E-06 V/s	
31.1157489214403	-0.00987854003906249	29.7999999247622	299	3.55920783476904E-05		
31.2157489211878	-0.00987548828125	29.8999999245098	300	4.57745481980965E-05		
31.3157489209353	-0.00987548828125	29.9999999242573	301	-3.55951815436129E-05	dWE(1).Potential/dt < 1E-06 V/s	
31.4157489206829	-0.00988159179687501	30.0999999240048	302	-0.000101706733403262	dWE(1).Potential/dt < 1E-06 V/s	
31.5157489204304	-0.00988159179687501	30.1999999237523	303	7.12058899807744E-05		
31.6157489201779	-0.00987854003906249	30.2999999234999	304	3.55920783476904E-05		
31.7157489199254	-0.0098724365234375	30.3999999232474	305	7.6300224463921E-05		
31.815748919673	-0.00988159179687501	30.4999999229949	306	-0.000228875840548426	dWE(1).Potential/dt < 1E-06 V/s	
31.9157489194205	-0.00988159179687501	30.5999999227424	307	0.000127162900753319		
32.015748919168	-0.00988159179687501	30.69999992249	308	-3.05101566482335E-05	dWE(1).Potential/dt < 1E-06 V/s	
32.1157489189155	-0.0098876953125	30.7999999222375	309	-0.000111901616037358	dWE(1).Potential/dt < 1E-06 V/s	
32.2157489186631	-0.0098846435546875	30.899999921985	310	0.000127162900753319		
32.3157489184106	-0.0098876953125	30.9999999217325	311	-0.000111914036097005	dWE(1).Potential/dt < 1E-06 V/s	
32.4157489181581	-0.0098846435546875	31.09999992148	312	0.000101737772638444		
32.5157489179056	-0.0098876953125	31.1999999212276	313	-0.000101740879472345	dWE(1).Potential/dt < 1E-06 V/s	
32.6157489176532	-0.0098907470703125	31.2999999209751	314	-1.01700525192427E-05	dWE(1).Potential/dt < 1E-06 V/s	
32.7157489174007	-0.0098907470703125	31.3999999207226	315	2.54406531894347E-05		
32.8157489171482	-0.0098846435546875	31.4999999204701	316	0.000101737772638444		
32.9157489168957	-0.00989379882812499	31.5999999202177	317	-0.00023908625007607	dWE(1).Potential/dt < 1E-06 V/s	
33.0157489166432	-0.0098876953125	31.6999999199652	318	0.000239067623624578		
33.1157489163908	-0.0098907470703125	31.7999999197127	319	-0.000157682370627299	dWE(1).Potential/dt < 1E-06 V/s	
33.2157489161383	-0.00989685058593751	31.8999999194602	320	-5.59228683414403E-05	dWE(1).Potential/dt < 1E-06 V/s	
33.3157489158858	-0.0098876953125	31.9999999192078	321	0.000228869641432539		
33.4157489156333	-0.0098876953125	32.0999999189553	322	-0.000127153587527573	dWE(1).Potential/dt < 1E-06 V/s	
33.5157489153809	-0.00988159179687501	32.1999999187028	323	0.000142424192745239		
33.6157489151284	-0.00989379882812499	32.2999999184503	324	-0.000295018428005278	dWE(1).Potential/dt < 1E-06 V/s	
33.7157489148759	-0.0098846435546875	32.3999999181979	325	0.00033061983413063		
33.8157489146234	-0.0098876953125	32.4999999179454	326	-0.000203469346161	dWE(1).Potential/dt < 1E-06 V/s	
33.915748914371	-0.0098907470703125	32.5999999176929	327	1.0176260730077E-05		
34.0157489141185	-0.00989379882812499	32.6999999174404	328	-3.05132616631454E-05	dWE(1).Potential/dt < 1E-06 V/s	
34.115748913866	-0.0098876953125	32.799999917188	329	0.000137326744152233		
34.2157489136135	-0.00989379882812499	32.8999999169355	330	-0.000193289975868538	dWE(1).Potential/dt < 1E-06 V/s	
34.3157489133611	-0.00989990234375	32.999999916683	331	-2.03338950086618E-05	dWE(1).Potential/dt < 1E-06 V/s	
34.4157489131086	-0.0099029541015625	33.0999999164305	332	-5.10365271111368E-06	dWE(1).Potential/dt < 1E-06 V/s	
34.5157489128561	-0.0098907470703125	33.1999999161781	333	0.000239058310398832		
34.6157489126036	-0.00989685058593751	33.2999999159256	334	-0.000264461705228314	dWE(1).Potential/dt < 1E-06 V/s	
34.7157489123512	-0.0098907470703125	33.3999999156731	335	0.000223778406507336		
34.8157489120987	-0.0098907470703125	33.4999999154206	336	-9.15397831704468E-05	dWE(1).Potential/dt < 1E-06 V/s	
34.9157489118462	-0.00989379882812499	33.5999999151682	337	-3.56076016032603E-05	dWE(1).Potential/dt < 1E-06 V/s	
35.0157489115937	-0.0098876953125	33.6999999149157	338	0.000147499900776893		
35.1157489113413	-0.00989685058593751	33.7999999146632	339	-0.000249219039687887	dWE(1).Potential/dt < 1E-06 V/s	
35.2157489110888	-0.0098846435546875	33.8999999144107	340	0.000350953720044345		
35.3157489108363	-0.0099029541015625	33.9999999141583	341	-0.000508639204781502	dWE(1).Potential/dt < 1E-06 V/s	
35.4157489105838	-0.0098907470703125	34.0999999139058	342	0.000478110421681777		
35.5157489103314	-0.00989379882812499	34.1999999136533	343	-0.000259395310422406	dWE(1).Potential/dt < 1E-06 V/s	
35.6157489100789	-0.0098907470703125	34.2999999134008	344	0.00013223550922703		
35.7157489098264	-0.0098907470703125	34.3999999131483	345	-4.57683381682727E-05	dWE(1).Potential/dt < 1E-06 V/s	
35.8157489095739	-0.0098907470703125	34.4999999128959	346	1.0176260730077E-05		
35.9157489093215	-0.0098907470703125	34.5999999126434	347	3.1044116166612E-09	dWE(1).Potential/dt < 1E-06 V/s	
36.015748909069	-0.00988159179687501	34.6999999123909	348	0.000167864840477705		
36.1157489088165	-0.0098846435546875	34.7999999121384	349	-0.000162767406436615	dWE(1).Potential/dt < 1E-06 V/s	
36.215748908564	-0.0098907470703125	34.899999911886	350	-4.57931746495888E-05	dWE(1).Potential/dt < 1E-06 V/s	
36.3157489083115	-0.0098846435546875	34.9999999116335	351	0.000172959189512767		
36.4157489080591	-0.00989379882812499	35.099999911381	352	-0.00025943256332539	dWE(1).Potential/dt < 1E-06 V/s	
36.5157489078066	-0.0098876953125	35.1999999111285	353	0.000239067623624578		
36.6157489075541	-0.0098907470703125	35.2999999108761	354	-0.000157682370627299	dWE(1).Potential/dt < 1E-06 V/s	
36.7157489073016	-0.0098907470703125	35.3999999106236	355	5.5960121244425E-05		
36.8157489070492	-0.0098876953125	35.4999999103711	356	4.57838614238426E-05		
36.9157489067967	-0.0098907470703125	35.5999999101186	357	-9.1564616013784E-05	dWE(1).Potential/dt < 1E-06 V/s	
37.0157489065442	-0.00989379882812499	35.6999999098662	358	-1.01669475043309E-05	dWE(1).Potential/dt < 1E-06 V/s	
37.1157489062917	-0.00989990234375	35.7999999096137	359	-8.64640678628348E-05	dWE(1).Potential/dt < 1E-06 V/s	
37.2157489060393	-0.00989379882812499	35.8999999093612	360	0.000172906409716234		
37.3157489057868	-0.00989990234375	35.9999999091087	361	-0.000203432093258016	dWE(1).Potential/dt < 1E-06 V/s	
37.4157489055343	-0.00989685058593751	36.0999999088563	362	0.000147493701661006		
37.5157489052818	-0.0098876953125	36.1999999086038	363	0.000111901616037358		
37.6157489050294	-0.00989379882812499	36.2999999083513	364	-0.000208545054192655	dWE(1).Potential/dt < 1E-06 V/s	
37.7157489047769	-0.00989379882812499	36.3999999080988	365	0.000101719146186952		
37.8157489045244	-0.0098876953125	36.4999999078464	366	9.15553027880378E-05		
37.9157489042719	-0.0098907470703125	36.5999999075939	367	-0.000127162900753319	dWE(1).Potential/dt < 1E-06 V/s	
38.0157489040195	-0.0098907470703125	36.6999999073414	368	5.5960121244425E-05		
38.115748903767	-0.0098876953125	36.7999999070889	369	4.57838614238426E-05		
38.2157489035145	-0.0098876953125	36.8999999068365	370	-3.56107047991827E-05	dWE(1).Potential/dt < 1E-06 V/s	
38.315748903262	-0.00989379882812499	36.999999906584	371	-0.0001017346730805	dWE(1).Potential/dt < 1E-06 V/s	
38.4157489030096	-0.00989379882812499	37.0999999063315	372	7.12027831468731E-05		
38.5157489027571	-0.00989379882812499	37.199999906079	373	-2.03525214601541E-05	dWE(1).Potential/dt < 1E-06 V/s	
38.6157489025046	-0.00989379882812499	37.2999999058266	374	-6.20882323332239E-09	dWE(1).Potential/dt < 1E-06 V/s	
38.7157489022521	-0.00989685058593751	37.3999999055741	375	-5.59352884010877E-05	dWE(1).Potential/dt < 1E-06 V/s	
38.8157489019997	-0.0099029541015625	37.4999999053216	376	-7.6300224463921E-05	dWE(1).Potential/dt < 1E-06 V/s	
38.9157489017472	-0.00989379882812499	37.5999999050691	377	0.000228875840548426		
39.0157489014947	-0.00989379882812499	37.6999999048167	378	-0.000127162900753319	dWE(1).Potential/dt < 1E-06 V/s	
39.1157489012422	-0.00989379882812499	37.7999999045642	379	3.05101566482335E-05		
39.2157489009898	-0.0098907470703125	37.8999999043117	380	5.59477048227564E-05		
39.3157489007373	-0.0098846435546875	37.9999999040592	381	7.63126445235685E-05		
39.4157489004848	-0.00989379882812499	38.0999999038067	382	-0.000228913093451411	dWE(1).Potential/dt < 1E-06 V/s	
39.5157489002323	-0.00989379882812499	38.1999999035543	383	0.000127159801195376		
39.6157488999798	-0.0099029541015625	38.2999999033018	384	-0.000198362584342249	dWE(1).Potential/dt < 1E-06 V/s	
39.7157488997274	-0.0098876953125	38.3999999030493	385	0.000386555126169696		
39.8157488994749	-0.00989685058593751	38.4999999027968	386	-0.00037637265631929	dWE(1).Potential/dt < 1E-06 V/s	
39.9157488992224	-0.00989379882812499	38.5999999025444	387	0.000213608349440619		
40.0157488989699	-0.00989379882812499	38.6999999022919	388	-6.61239682813175E-05	dWE(1).Potential/dt < 1E-06 V/s	
40.1157488987175	-0.00989379882812499	38.7999999020394	389	1.01638433989137E-05		
40.215748898465	-0.00989379882812499	38.8999999017869	390	-6.20882323332239E-09	dWE(1).Potential/dt < 1E-06 V/s	
40.3157488982125	-0.00989685058593751	38.9999999015345	391	-5.59352884010877E-05	dWE(1).Potential/dt < 1E-06 V/s	
40.41574889796	-0.00989990234375	39.099999901282	392	-2.03463132493198E-05	dWE(1).Potential/dt < 1E-06 V/s	
40.5157488977076	-0.00989990234375	39.1999999010295	393	2.54251299338648E-05		
40.6157488974551	-0.009906005859375	39.299999900777	394	-0.000122084093163721	dWE(1).Potential/dt < 1E-06 V/s	
40.7157488972026	-0.00989685058593751	39.3999999005246	395	0.00023908625007607		
40.8157488969501	-0.0099029541015625	39.4999999002721	396	-0.000239067623624578	dWE(1).Potential/dt < 1E-06 V/s	
40.9157488966977	-0.00989379882812499	39.5999999000196	397	0.000269565352937207		
41.0157488964452	-0.00989379882812499	39.6999998997671	398	-0.000127162900753319	dWE(1).Potential/dt < 1E-06 V/s	
41.1157488961927	-0.00989990234375	39.7999998995147	399	-8.13728329376318E-05	dWE(1).Potential/dt < 1E-06 V/s	
41.2157488959402	-0.00989990234375	39.8999998992622	400	7.11965767550282E-05		
41.3157488956878	-0.00989685058593751	39.9999998990097	401	3.56076016032603E-05		
41.4157488954353	-0.00989990234375	40.0999998987572	402	-9.15459895622917E-05	dWE(1).Potential/dt < 1E-06 V/s	
41.5157488951828	-0.00989685058593751	40.1999998985048	403	0.000101722253020853		
41.6157488949303	-0.009906005859375	40.2999998982523	404	-0.000213626975892112	dWE(1).Potential/dt < 1E-06 V/s	
41.7157488946779	-0.00989685058593751	40.3999998979998	405	0.000284857698716223		
41.8157488944254	-0.00989685058593751	40.4999998977473	406	-0.000137332957820036	dWE(1).Potential/dt < 1E-06 V/s	
41.9157488941729	-0.00989685058593751	40.5999998974949	407	3.05256799038034E-05		
42.0157488939204	-0.0098907470703125	40.6999998972424	408	0.000111889203253668		
42.115748893668	-0.0099029541015625	40.7999998969899	409	-0.000294987403322011	dWE(1).Potential/dt < 1E-06 V/s	
42.2157488934155	-0.00989990234375	40.8999998967374	410	0.000218705798033625		
42.315748893163	-0.009906005859375	40.999999896485	411	-0.000188211153727025	dWE(1).Potential/dt < 1E-06 V/s	
42.4157488929105	-0.00989685058593751	41.0999998962325	412	0.00024925940670073		
42.5157488926581	-0.009906005859375	41.19999989598	413	-0.000295021542115137	dWE(1).Potential/dt < 1E-06 V/s	
42.6157488924056	-0.00989379882812499	41.2999998957275	414	0.000361133104888722		
42.7157488921531	-0.00989990234375	41.399999895475	415	-0.000284829759038985	dWE(1).Potential/dt < 1E-06 V/s	
42.8157488919006	-0.00989685058593751	41.4999998952226	416	0.000167840014910325		
42.9157488916482	-0.00989990234375	41.5999998949701	417	-0.000111889203253668	dWE(1).Potential/dt < 1E-06 V/s	
43.0157488913957	-0.00989990234375	41.6999998947176	418	4.57683381682727E-05		
43.1157488911432	-0.00989685058593751	41.7999998944651	419	4.57776513940189E-05		
43.2157488908907	-0.00989990234375	41.8999998942127	420	-9.15459895622917E-05	dWE(1).Potential/dt < 1E-06 V/s	
43.3157488906382	-0.009906005859375	41.9999998939602	421	-6.61394878989086E-05	dWE(1).Potential/dt < 1E-06 V/s	
43.4157488903858	-0.00989990234375	42.0999998937077	422	0.000172959189512767		
43.5157488901333	-0.00989990234375	42.1999998934552	423	-9.15708296815865E-05	dWE(1).Potential/dt < 1E-06 V/s	
43.6157488898808	-0.00989685058593751	42.2999998932028	424	7.62971249059774E-05		
43.7157488896283	-0.00989990234375	42.3999998929503	425	-9.15459895622917E-05	dWE(1).Potential/dt < 1E-06 V/s	
43.8157488893759	-0.00989379882812499	42.4999998926978	426	0.000157651331392117		
43.9157488891234	-0.00989990234375	42.5999998924453	427	-0.0001932620361913	dWE(1).Potential/dt < 1E-06 V/s	
44.0157488888709	-0.00989379882812499	42.6999998921929	428	0.00020342278003227		
44.1157488886184	-0.00989685058593751	42.7999998919404	429	-0.000147478174767457	dWE(1).Potential/dt < 1E-06 V/s	
44.215748888366	-0.00989685058593751	42.8999998916879	430	5.59508080186788E-05		
44.3157488881135	-0.00989685058593751	42.9999998914354	431	-1.01638433989137E-05	dWE(1).Potential/dt < 1E-06 V/s	
44.415748887861	-0.00989685058593751	43.099999891183	432	6.20882323332239E-09	dWE(1).Potential/dt < 1E-06 V/s	
44.5157488876085	-0.0098907470703125	43.1999998909305	433	0.000111889203253668		
44.6157488873561	-0.0098907470703125	43.299999890678	434	-7.11965767550282E-05	dWE(1).Potential/dt < 1E-06 V/s	
44.7157488871036	-0.00989685058593751	43.3999998904255	435	-9.15366763365455E-05	dWE(1).Potential/dt < 1E-06 V/s	
44.8157488868511	-0.00989990234375	43.4999998901731	436	1.52519742186996E-05		
44.9157488865986	-0.00989379882812499	43.5999998899206	437	0.000127134961076081		
45.0157488863462	-0.0099029541015625	43.6999998896681	438	-0.000249215954681858	dWE(1).Potential/dt < 1E-06 V/s	
45.1157488860937	-0.0098876953125	43.7999998894156	439	0.000406898325309157		
45.2157488858412	-0.00989379882812499	43.8999998891632	440	-0.000320443563396111	dWE(1).Potential/dt < 1E-06 V/s	
45.3157488855887	-0.00989379882812499	43.9999998889107	441	0.000122065459436271		
45.4157488853363	-0.00989379882812499	44.0999998886582	442	-2.03525214601541E-05	dWE(1).Potential/dt < 1E-06 V/s	
45.5157488850838	-0.0098907470703125	44.1999998884057	443	5.59477048227564E-05		
45.6157488848313	-0.0098907470703125	44.2999998881533	444	-3.55951815436129E-05	dWE(1).Potential/dt < 1E-06 V/s	
45.7157488845788	-0.00989379882812499	44.3999998879008	445	-4.57776513940189E-05	dWE(1).Potential/dt < 1E-06 V/s	
45.8157488843264	-0.00989379882812499	44.4999998876483	446	3.55920783476904E-05		
45.9157488840739	-0.00989685058593751	44.5999998873958	447	-6.61084413877688E-05	dWE(1).Potential/dt < 1E-06 V/s	
46.0157488838214	-0.0098876953125	44.6999998871433	448	0.000203444506041706		
46.1157488835689	-0.0098907470703125	44.7999998868909	449	-0.000172934349393472	dWE(1).Potential/dt < 1E-06 V/s	
46.2157488833165	-0.00989990234375	44.8999998866384	450	-0.000101706733403262	dWE(1).Potential/dt < 1E-06 V/s	
46.315748883064	-0.0098907470703125	44.9999998863859	451	0.000264458620222285		
46.4157488828115	-0.0099029541015625	45.0999998861334	452	-0.000361102051101625	dWE(1).Potential/dt < 1E-06 V/s	
46.515748882559	-0.00989685058593751	45.199999885881	453	0.000284832873148844		
46.6157488823065	-0.0098907470703125	45.2999998856285	454	-9.31323462793898E-09	dWE(1).Potential/dt < 1E-06 V/s	
46.7157488820541	-0.0098907470703125	45.399999885376	455	-5.08502598677296E-05	dWE(1).Potential/dt < 1E-06 V/s	
46.8157488818016	-0.00989990234375	45.4999998851235	456	-0.000147490587551147	dWE(1).Potential/dt < 1E-06 V/s	
46.9157488815491	-0.00989379882812499	45.5999998848711	457	0.000218677858356386		
47.0157488812966	-0.00989685058593751	45.6999998846186	458	-0.000157651331392117	dWE(1).Potential/dt < 1E-06 V/s	
47.1157488810442	-0.00989379882812499	45.7999998843661	459	0.000111879890027922		
47.2157488807917	-0.00989379882812499	45.8999998841136	460	-4.57776513940189E-05	dWE(1).Potential/dt < 1E-06 V/s	
47.3157488805392	-0.00989379882812499	45.9999998838612	461	1.01638433989137E-05		
47.4157488802867	-0.00989685058593751	46.0999998836087	462	-5.59352884010877E-05	dWE(1).Potential/dt < 1E-06 V/s	
47.5157488800343	-0.0098907470703125	46.1999998833562	463	0.000147490587551147		
47.6157488797818	-0.0098846435546875	46.2999998831037	464	3.05411995213944E-05		
47.7157488795293	-0.00989685058593751	46.3999998828513	465	-0.000274672114755958	dWE(1).Potential/dt < 1E-06 V/s	
47.8157488792768	-0.00989379882812499	46.4999998825988	466	0.000218702683923766		
47.9157488790244	-0.0098907470703125	46.5999998823463	467	-2.03432082344079E-05	dWE(1).Potential/dt < 1E-06 V/s	
48.0157488787719	-0.0098907470703125	46.6999998820938	468	-2.54251299338648E-05	dWE(1).Potential/dt < 1E-06 V/s	
48.1157488785194	-0.0098907470703125	46.7999998818414	469	1.0176260730077E-05		
48.2157488782669	-0.0098876953125	46.8999998815889	470	5.59570180485025E-05		
48.3157488780145	-0.0098876953125	46.9999998813364	471	-3.56107047991827E-05	dWE(1).Potential/dt < 1E-06 V/s	
48.415748877762	-0.0098876953125	47.0999998810839	472	1.01731566246599E-05		
48.5157488775095	-0.0098876953125	47.1999998808315	473	0	dWE(1).Potential/dt < 1E-06 V/s	
48.615748877257	-0.00989379882812499	47.299999880579	474	-0.00011190782970516	dWE(1).Potential/dt < 1E-06 V/s	
48.7157488770046	-0.0098876953125	47.3999998803265	475	0.000183110605576076		
48.8157488767521	-0.0098846435546875	47.499999880074	476	-3.56013915734366E-05	dWE(1).Potential/dt < 1E-06 V/s	
48.9157488764996	-0.00988159179687501	47.5999998798216	477	4.06864164688159E-05		
49.0157488762471	-0.00988159179687501	47.6999998795691	478	-2.54189217230305E-05	dWE(1).Potential/dt < 1E-06 V/s	
49.1157488759947	-0.0098907470703125	47.7999998793166	479	-0.000157682370627299	dWE(1).Potential/dt < 1E-06 V/s	
49.2157488757422	-0.00989379882812499	47.8999998790641	480	5.08688863192219E-05		
49.3157488754897	-0.00989379882812499	47.9999998788117	481	5.07260847371072E-06		
49.4157488752372	-0.00989379882812499	48.0999998785592	482	-1.01793657449889E-05	dWE(1).Potential/dt < 1E-06 V/s	
49.5157488749848	-0.00989379882812499	48.1999998783067	483	-6.20882323332239E-09	dWE(1).Potential/dt < 1E-06 V/s	
49.6157488747323	-0.00989379882812499	48.2999998780542	484	-6.20882323332239E-09	dWE(1).Potential/dt < 1E-06 V/s	
49.7157488744798	-0.00989379882812499	48.3999998778017	485	-6.20882323332239E-09	dWE(1).Potential/dt < 1E-06 V/s	
49.8157488742273	-0.00989379882812499	48.4999998775493	486	-6.20882323332239E-09	dWE(1).Potential/dt < 1E-06 V/s	
49.9157488739748	-0.00989379882812499	48.5999998772968	487	-6.20882323332239E-09	dWE(1).Potential/dt < 1E-06 V/s	
50.0157488737224	-0.0098876953125	48.6999998770443	488	0.000111901616037358		
50.1157488734699	-0.0098907470703125	48.7999998767918	489	-0.000127162900753319	dWE(1).Potential/dt < 1E-06 V/s	
50.2157488732174	-0.0098907470703125	48.8999998765394	490	5.5960121244425E-05		
50.3157488729649	-0.0098876953125	48.9999998762869	491	4.57838614238426E-05		
50.4157488727125	-0.00989379882812499	49.0999998760344	492	-0.000147518527228385	dWE(1).Potential/dt < 1E-06 V/s	
50.51574887246	-0.0098846435546875	49.1999998757819	493	0.00024923769524321		
50.6157488722075	-0.00989379882812499	49.2999998755295	494	-0.000295030855340883	dWE(1).Potential/dt < 1E-06 V/s	
50.715748871955	-0.00989685058593751	49.399999875277	495	8.14038794487715E-05		
50.8157488717026	-0.0098876953125	49.4999998750245	496	0.000172925036167726		
50.9157488714501	-0.00989379882812499	49.599999874772	497	-0.000228888267884031	dWE(1).Potential/dt < 1E-06 V/s	
51.0157488711976	-0.00989990234375	49.6999998745196	498	-1.01638433989137E-05	dWE(1).Potential/dt < 1E-06 V/s	
51.1157488709451	-0.00989685058593751	49.7999998742671	499	0.00010680417472031		
51.2157488706927	-0.00989685058593751	49.8999998740146	500	-5.59352884010877E-05	dWE(1).Potential/dt < 1E-06 V/s	
51.3157488704402	-0.00989990234375	49.9999998737621	501	-4.57745481980965E-05	dWE(1).Potential/dt < 1E-06 V/s	
51.4157488701877	-0.00989990234375	50.0999998735097	502	3.55951815436129E-05		
51.5157488699352	-0.00989379882812499	50.1999998732572	503	0.000101706733403262		
51.6157488696828	-0.0098907470703125	50.2999998730047	504	-1.52519742186996E-05	dWE(1).Potential/dt < 1E-06 V/s	
51.7157488694303	-0.00989685058593751	50.3999998727522	505	-0.000127134961076081	dWE(1).Potential/dt < 1E-06 V/s	
51.8157488691778	-0.00989379882812499	50.4999998724998	506	0.000137308117700741		
51.9157488689253	-0.009906005859375	50.5999998722473	507	-0.000279741623671725	dWE(1).Potential/dt < 1E-06 V/s	
52.0157488686729	-0.00989379882812499	50.6999998719948	508	0.000376385054551065		
52.1157488684204	-0.0099029541015625	50.7999998717423	509	-0.000350953720044345	dWE(1).Potential/dt < 1E-06 V/s	
52.2157488681679	-0.00989379882812499	50.8999998714899	510	0.000315336801577359		
52.3157488679154	-0.0099029541015625	50.9999998712374	511	-0.000305169873172417	dWE(1).Potential/dt < 1E-06 V/s	
52.415748867663	-0.00989990234375	51.0999998709849	512	0.000193280662642792		
52.5157488674105	-0.00989685058593751	51.1999998707324	513	-1.0176260730077E-05	dWE(1).Potential/dt < 1E-06 V/s	
52.615748867158	-0.0099029541015625	51.29999987048	514	-0.000137326744152233	dWE(1).Potential/dt < 1E-06 V/s	
52.7157488669055	-0.00989685058593751	51.3999998702275	515	0.000193289975868538		
52.8157488666531	-0.00989990234375	51.499999869975	516	-0.000147503014886752	dWE(1).Potential/dt < 1E-06 V/s	
52.9157488664006	-0.00989685058593751	51.5999998697225	517	0.000111895409645513		
53.0157488661481	-0.009906005859375	51.69999986947	518	-0.000213626975892112	dWE(1).Potential/dt < 1E-06 V/s	
53.1157488658956	-0.00989990234375	51.7999998692176	519	0.000228903780225664		
53.2157488656432	-0.0099029541015625	51.8999998689651	520	-0.000157697897520848	dWE(1).Potential/dt < 1E-06 V/s	
53.3157488653907	-0.00989990234375	51.9999998687126	521	0.000111910929263104		
53.4157488651382	-0.00989990234375	52.0999998684601	522	-4.57869646197651E-05	dWE(1).Potential/dt < 1E-06 V/s	
53.5157488648857	-0.0099029541015625	52.1999998682077	523	-4.57838614238426E-05	dWE(1).Potential/dt < 1E-06 V/s	
53.6157488646332	-0.00989990234375	52.2999998679552	524	9.1564616013784E-05		
53.7157488643808	-0.0099029541015625	52.3999998677027	525	-0.000101740879472345	dWE(1).Potential/dt < 1E-06 V/s	
53.8157488641283	-0.00989990234375	52.4999998674502	526	0.000101737772638444		
53.9157488638758	-0.009906005859375	52.5999998671978	527	-0.000157694797962904	dWE(1).Potential/dt < 1E-06 V/s	
54.0157488636233	-0.00989990234375	52.6999998669453	528	0.000193305502762087		
54.1157488633709	-0.009906005859375	52.7999998666928	529	-0.000203478659386747	dWE(1).Potential/dt < 1E-06 V/s	
54.2157488631184	-0.0099029541015625	52.8999998664403	530	0.000147524740896188		
54.3157488628659	-0.0099029541015625	52.9999998661879	531	-5.59570180485025E-05	dWE(1).Potential/dt < 1E-06 V/s	
54.4157488626134	-0.009906005859375	53.0999998659354	532	-4.57807582279202E-05	dWE(1).Potential/dt < 1E-06 V/s	
54.515748862361	-0.009906005859375	53.1999998656829	533	3.56138079951052E-05		
54.6157488621085	-0.00989990234375	53.2999998654304	534	0.000101737772638444		
54.715748861856	-0.0099029541015625	53.399999865178	535	-0.000127178427646868	dWE(1).Potential/dt < 1E-06 V/s	
54.8157488616035	-0.00989990234375	53.4999998649255	536	0.000111910929263104		
54.9157488613511	-0.00989990234375	53.599999864673	537	-4.57869646197651E-05	dWE(1).Potential/dt < 1E-06 V/s	
55.0157488610986	-0.0099029541015625	53.6999998644205	538	-4.57838614238426E-05	dWE(1).Potential/dt < 1E-06 V/s	
55.1157488608461	-0.00989990234375	53.7999998641681	539	9.1564616013784E-05		
55.2157488605936	-0.00989685058593751	53.8999998639156	540	1.01669475043309E-05		
55.3157488603412	-0.009906005859375	53.9999998636631	541	-0.000193280662642792	dWE(1).Potential/dt < 1E-06 V/s	
55.4157488600887	-0.00990905761718749	54.0999998634106	542	6.10420465818606E-05		
55.5157488598362	-0.00990905761718749	54.1999998631582	543	5.07260847371072E-06		
55.6157488595837	-0.00989990234375	54.2999998629057	544	0.000157682370627299		
55.7157488593313	-0.0099151611328125	54.3999998626532	545	-0.000386567524401471	dWE(1).Potential/dt < 1E-06 V/s	
55.8157488590788	-0.00990905761718749	54.4999998624007	546	0.000320418737828732		
55.9157488588263	-0.009906005859375	54.5999998621483	547	-6.61146550555713E-05	dWE(1).Potential/dt < 1E-06 V/s	
56.0157488585738	-0.009906005859375	54.6999998618958	548	-1.52519742186996E-05	dWE(1).Potential/dt < 1E-06 V/s	
56.1157488583214	-0.00990905761718749	54.7999998616433	549	-4.57776513940189E-05	dWE(1).Potential/dt < 1E-06 V/s	
56.2157488580689	-0.009906005859375	54.8999998613908	550	9.15459895622917E-05		
56.3157488578164	-0.0099029541015625	54.9999998611383	551	1.01855739558232E-05		
56.4157488575639	-0.009906005859375	55.0999998608859	552	-8.13914593891241E-05	dWE(1).Potential/dt < 1E-06 V/s	
56.5157488573115	-0.00989990234375	55.1999998606334	553	0.000157694797962904		
56.615748857059	-0.0099029541015625	55.2999998603809	554	-0.000137351584271528	dWE(1).Potential/dt < 1E-06 V/s	
56.7157488568065	-0.00990905761718749	55.3999998601284	555	-5.59508080186788E-05	dWE(1).Potential/dt < 1E-06 V/s	
56.815748856554	-0.00991210937500001	55.499999859876	556	5.10054815094918E-06		
56.9157488563015	-0.00990905761718749	55.5999998596235	557	7.11903630872257E-05		
57.0157488560491	-0.00989685058593751	55.699999859371	558	0.000178037997102365		
57.1157488557966	-0.009906005859375	55.7999998591185	559	-0.000300103478366509	dWE(1).Potential/dt < 1E-06 V/s	
57.2157488555441	-0.00991210937500001	55.8999998588661	560	3.56324344465975E-05		
57.3157488552916	-0.00990905761718749	55.9999998586136	561	9.66154984780587E-05		
57.4157488550392	-0.00991210937500001	56.0999998583611	562	-0.000111879890027922	dWE(1).Potential/dt < 1E-06 V/s	
57.5157488547867	-0.00990905761718749	56.1999998581086	563	0.000101706733403262		
57.6157488545342	-0.00989990234375	56.2999998578562	564	0.000122084093163721		
57.7157488542817	-0.00989990234375	56.3999998576037	565	-9.66527513810433E-05	dWE(1).Potential/dt < 1E-06 V/s	
57.8157488540293	-0.00991210937500001	56.4999998573512	566	-0.000193274448974989	dWE(1).Potential/dt < 1E-06 V/s	
57.9157488537768	-0.009906005859375	56.5999998570987	567	0.000254310289165005		
58.0157488535243	-0.00990905761718749	56.6999998568463	568	-0.000167840014910325	dWE(1).Potential/dt < 1E-06 V/s	
58.1157488532718	-0.00991210937500001	56.7999998565938	569	6.20882323332239E-09	dWE(1).Potential/dt < 1E-06 V/s	
58.2157488530194	-0.00991210937500001	56.8999998563413	570	2.5434443159611E-05		
58.3157488527669	-0.009906005859375	56.9999998560888	571	0.000101719146186952		
58.4157488525144	-0.00990905761718749	57.0999998558364	572	-0.000127150487969629	dWE(1).Potential/dt < 1E-06 V/s	
58.5157488522619	-0.009906005859375	57.1999998555839	573	0.000111889203253668		
58.6157488520095	-0.009906005859375	57.2999998553314	574	-4.57683381682727E-05	dWE(1).Potential/dt < 1E-06 V/s	
58.715748851757	-0.00991210937500001	57.3999998550789	575	-0.000101706733403262	dWE(1).Potential/dt < 1E-06 V/s	
58.8157488515045	-0.00991210937500001	57.4999998548265	576	7.12058899807744E-05		
58.915748851252	-0.00991210937500001	57.599999854574	577	-2.03370000235736E-05	dWE(1).Potential/dt < 1E-06 V/s	
59.0157488509996	-0.009906005859375	57.6999998543215	578	0.000111889203253668		
59.1157488507471	-0.00991210937500001	57.799999854069	579	-0.000183079566340894	dWE(1).Potential/dt < 1E-06 V/s	
59.2157488504946	-0.0099151611328125	57.8999998538166	580	3.55951815436129E-05		
59.3157488502421	-0.0099029541015625	57.9999998535641	581	0.000239042798057199		
59.4157488499897	-0.00991210937500001	58.0999998533116	582	-0.000320418737828732	dWE(1).Potential/dt < 1E-06 V/s	
59.5157488497372	-0.00990905761718749	58.1999998530591	583	0.000203435192815959		
59.6157488494847	-0.009906005859375	58.2999998528067	584	-1.01700525192427E-05	dWE(1).Potential/dt < 1E-06 V/s	
59.7157488492322	-0.00991210937500001	58.3999998525542	585	-0.000137308117700741	dWE(1).Potential/dt < 1E-06 V/s	
59.8157488489798	-0.00991210937500001	58.4999998523017	586	8.13790466054343E-05		
59.9157488487273	-0.00990905761718749	58.5999998520492	587	3.55920783476904E-05		
60.0157488484748	-0.009906005859375	58.6999998517967	588	2.03463132493198E-05		
60.1157488482223	-0.00990905761718749	58.7999998515443	589	-8.13790466054343E-05	dWE(1).Potential/dt < 1E-06 V/s	
60.2157488479698	-0.0099151611328125	58.8999998512918	590	-6.6117754613515E-05	dWE(1).Potential/dt < 1E-06 V/s	
60.3157488477174	-0.00991210937500001	58.9999998510393	591	0.00011697733134497		
60.4157488474649	-0.00990905761718749	59.0999998507868	592	-6.20882323332239E-09	dWE(1).Potential/dt < 1E-06 V/s	
60.5157488472124	-0.00990905761718749	59.1999998505344	593	-2.5434443159611E-05	dWE(1).Potential/dt < 1E-06 V/s	
60.6157488469599	-0.009918212890625	59.2999998502819	594	-0.000157673057401553	dWE(1).Potential/dt < 1E-06 V/s	
60.7157488467075	-0.0099151611328125	59.3999998500294	595	0.000162764292326756		
60.815748846455	-0.0099151611328125	59.4999998497769	596	-6.61301746731624E-05	dWE(1).Potential/dt < 1E-06 V/s	
60.9157488462025	-0.0099151611328125	59.5999998495245	597	1.01700525192427E-05		
61.01574884595	-0.009918212890625	59.699999849272	598	-5.59570180485025E-05	dWE(1).Potential/dt < 1E-06 V/s	
61.1157488456976	-0.0099151611328125	59.7999998490195	599	9.1564616013784E-05		
61.2157488454451	-0.0099151611328125	59.899999848767	600	-4.57869646197651E-05	dWE(1).Potential/dt < 1E-06 V/s	
