Time (s)	WE(1).Potential (V)	Corrected time (s)	Index	dWE(1).Potential/dt (V/s)	Cutoffs	OCP value (V)
1.5847469959989	0.053375244140625	0	1	0	dWE(1).Potential/dt < 1E-06 V/s	0.0534147374770221
1.68474699574642	0.05340576171875	0.0999999997475243	2	0.000305175723042339		
1.78474699549395	0.053375244140625	0.199999999495049	3	-0.000610351446084678	dWE(1).Potential/dt < 1E-06 V/s	
1.88474699524147	0.053375244140625	0.299999999242573	4	0.000457763555459678		
1.984746994989	0.05340576171875	0.399999998990097	5	0.000457763555459678		
2.08474699473652	0.05340576171875	0.499999998737621	6	-0.000356038333848119	dWE(1).Potential/dt < 1E-06 V/s	
2.18474699448404	0.053375244140625	0.599999998485146	7	-0.000457763555459678	dWE(1).Potential/dt < 1E-06 V/s	
2.28474699423157	0.053375244140625	0.69999999823267	8	0.000356038333848119		
2.38474699397909	0.05340576171875	0.799999997980194	9	0.000457763555459678		
2.48474699372662	0.05340576171875	0.899999997727718	10	-0.000356038333848119	dWE(1).Potential/dt < 1E-06 V/s	
2.58474699347414	0.05340576171875	0.999999997475243	11	0.000101725236163475		
2.68474699322167	0.053375244140625	1.09999999722277	12	-0.000559488777071238	dWE(1).Potential/dt < 1E-06 V/s	
2.78474699296919	0.05340576171875	1.19999999697029	13	0.000915527110919356		
2.88474699271671	0.053375244140625	1.29999999671782	14	-0.00101725233253092	dWE(1).Potential/dt < 1E-06 V/s	
2.98474699246424	0.053375244140625	1.39999999646534	15	0.000457763555459678		
3.08474699221176	0.05340576171875	1.49999999621286	16	0.000457763555459678		
3.18474699195929	0.053375244140625	1.59999999596039	17	-0.000915527110919356	dWE(1).Potential/dt < 1E-06 V/s	
3.28474699170681	0.05340576171875	1.69999999570791	18	0.00101725233253092		
3.38474699145434	0.05340576171875	1.79999999545544	19	-0.000457763555459678	dWE(1).Potential/dt < 1E-06 V/s	
3.48474699120186	0.053436279296875	1.89999999520296	20	0.000661214056890458		
3.58474699094938	0.05340576171875	1.99999999495049	21	-0.000915527110919356	dWE(1).Potential/dt < 1E-06 V/s	
3.68474699069691	0.05340576171875	2.09999999469801	22	0.000457763555459678		
3.78474699044443	0.05340576171875	2.19999999444553	23	-0.000101725236163475	dWE(1).Potential/dt < 1E-06 V/s	
3.88474699019196	0.05340576171875	2.29999999419306	24	0	dWE(1).Potential/dt < 1E-06 V/s	
3.98474698993948	0.05340576171875	2.39999999394058	25	0	dWE(1).Potential/dt < 1E-06 V/s	
4.08474698968701	0.05340576171875	2.49999999368811	26	0	dWE(1).Potential/dt < 1E-06 V/s	
4.18474698943453	0.05340576171875	2.59999999343563	27	0	dWE(1).Potential/dt < 1E-06 V/s , dWE(1).Potential/dt > -1E-06 V/s	
4.28474698918205	0.05340576171875	2.69999999318316	28	0	dWE(1).Potential/dt < 1E-06 V/s , dWE(1).Potential/dt > -1E-06 V/s	
4.38474698892958	0.053436279296875	2.79999999293068	29	0.000559488777071238		
4.4847469886771	0.053436279296875	2.8999999926782	30	-0.000356038333848119	dWE(1).Potential/dt < 1E-06 V/s	
4.58474698842463	0.05340576171875	2.99999999242573	31	-0.000457763555459678	dWE(1).Potential/dt < 1E-06 V/s	
4.68474698817215	0.053436279296875	3.09999999217325	32	0.000915527110919356		
4.78474698791968	0.053436279296875	3.19999999192078	33	-0.000457763555459678	dWE(1).Potential/dt < 1E-06 V/s	
4.8847469876672	0.053436279296875	3.2999999916683	34	0.000101725236163475		
4.98474698741472	0.05340576171875	3.39999999141583	35	-0.000559488777071238	dWE(1).Potential/dt < 1E-06 V/s	
5.08474698716225	0.053436279296875	3.49999999116335	36	0.000915527110919356		
5.18474698690977	0.05340576171875	3.59999999091087	37	-0.00101725233253092	dWE(1).Potential/dt < 1E-06 V/s	
5.2847469866573	0.053436279296875	3.6999999906584	38	0.00101725233253092		
5.38474698640482	0.05340576171875	3.79999999040592	39	-0.00101725233253092	dWE(1).Potential/dt < 1E-06 V/s	
5.48474698615235	0.05340576171875	3.89999999015345	40	0.000457763555459678		
5.58474698589987	0.05340576171875	3.99999998990097	41	-0.000101725236163475	dWE(1).Potential/dt < 1E-06 V/s	
5.68474698564739	0.05340576171875	4.0999999896485	42	0	dWE(1).Potential/dt < 1E-06 V/s	
5.78474698539492	0.05340576171875	4.19999998939602	43	0	dWE(1).Potential/dt < 1E-06 V/s	
5.88474698514244	0.05340576171875	4.29999998914354	44	0	dWE(1).Potential/dt < 1E-06 V/s	
5.98474698488997	0.05340576171875	4.39999998889107	45	0	dWE(1).Potential/dt < 1E-06 V/s , dWE(1).Potential/dt > -1E-06 V/s	
6.08474698463749	0.053436279296875	4.49999998863859	46	0.000559488777071238		
6.18474698438501	0.053436279296875	4.59999998838612	47	-0.000356038333848119	dWE(1).Potential/dt < 1E-06 V/s	
6.28474698413254	0.053436279296875	4.69999998813364	48	0.000101725236163475		
6.38474698388006	0.05340576171875	4.79999998788117	49	-0.000559488777071238	dWE(1).Potential/dt < 1E-06 V/s	
6.48474698362759	0.053436279296875	4.89999998762869	50	0.000915527110919356		
6.58474698337511	0.05340576171875	4.99999998737621	51	-0.00101725233253092	dWE(1).Potential/dt < 1E-06 V/s	
6.68474698312264	0.053436279296875	5.09999998712374	52	0.00101725233253092		
6.78474698287016	0.05340576171875	5.19999998687126	53	-0.00101725233253092	dWE(1).Potential/dt < 1E-06 V/s	
6.88474698261768	0.05340576171875	5.29999998661879	54	0.000457763555459678		
6.98474698236521	0.05340576171875	5.39999998636631	55	-0.000101725236163475	dWE(1).Potential/dt < 1E-06 V/s	
7.08474698211273	0.05340576171875	5.49999998611383	56	0	dWE(1).Potential/dt < 1E-06 V/s	
7.18474698186026	0.053436279296875	5.59999998586136	57	0.000559488777071238		
7.28474698160778	0.05340576171875	5.69999998560888	58	-0.000915527110919356	dWE(1).Potential/dt < 1E-06 V/s	
7.38474698135531	0.053436279296875	5.79999998535641	59	0.00101725233253092		
7.48474698110283	0.05340576171875	5.89999998510393	60	-0.00101725233253092	dWE(1).Potential/dt < 1E-06 V/s	
7.58474698085035	0.053436279296875	5.99999998485146	61	0.00101725233253092		
7.68474698059788	0.053436279296875	6.09999998459898	62	-0.000457763555459678	dWE(1).Potential/dt < 1E-06 V/s	
7.7847469803454	0.05340576171875	6.1999999843465	63	-0.000457763555459678	dWE(1).Potential/dt < 1E-06 V/s	
7.88474698009293	0.053436279296875	6.29999998409403	64	0.000915527110919356		
7.98474697984045	0.053436279296875	6.39999998384155	65	-0.000457763555459678	dWE(1).Potential/dt < 1E-06 V/s	
8.08474697958798	0.05340576171875	6.49999998358908	66	-0.000457763555459678	dWE(1).Potential/dt < 1E-06 V/s	
8.1847469793355	0.05340576171875	6.5999999833366	67	0.000356038333848119		
8.28474697908302	0.053436279296875	6.69999998308413	68	0.000457763555459678		
8.38474697883055	0.05340576171875	6.79999998283165	69	-0.000915527110919356	dWE(1).Potential/dt < 1E-06 V/s	
8.48474697857807	0.053436279296875	6.89999998257917	70	0.00101725233253092		
8.5847469783256	0.05340576171875	6.9999999823267	71	-0.00101725233253092	dWE(1).Potential/dt < 1E-06 V/s	
8.68474697807312	0.05340576171875	7.09999998207422	72	0.000457763555459678		
8.78474697782065	0.05340576171875	7.19999998182175	73	-0.000101725236163475	dWE(1).Potential/dt < 1E-06 V/s	
8.88474697756817	0.053436279296875	7.29999998156927	74	0.000559488777071238		
8.98474697731569	0.053436279296875	7.3999999813168	75	-0.000356038333848119	dWE(1).Potential/dt < 1E-06 V/s	
9.08474697706322	0.053436279296875	7.49999998106432	76	0.000101725236163475		
9.18474697681074	0.05340576171875	7.59999998081184	77	-0.000559488777071238	dWE(1).Potential/dt < 1E-06 V/s	
9.28474697655827	0.05340576171875	7.69999998055937	78	0.000356038333848119		
9.38474697630579	0.05340576171875	7.79999998030689	79	-0.000101725236163475	dWE(1).Potential/dt < 1E-06 V/s	
9.48474697605332	0.05340576171875	7.89999998005442	80	0	dWE(1).Potential/dt < 1E-06 V/s	
9.58474697580084	0.053375244140625	7.99999997980194	81	-0.000559488777071238	dWE(1).Potential/dt < 1E-06 V/s	
9.68474697554836	0.05340576171875	8.09999997954947	82	0.000915527110919356		
9.78474697529589	0.05340576171875	8.19999997929699	83	-0.000457763555459678	dWE(1).Potential/dt < 1E-06 V/s	
9.88474697504341	0.05340576171875	8.29999997904451	84	0.000101725236163475		
9.98474697479094	0.05340576171875	8.39999997879204	85	0	dWE(1).Potential/dt < 1E-06 V/s	
10.0847469745385	0.05340576171875	8.49999997853956	86	0	dWE(1).Potential/dt < 1E-06 V/s	
10.184746974286	0.05340576171875	8.59999997828709	87	0	dWE(1).Potential/dt < 1E-06 V/s	
10.2847469740335	0.05340576171875	8.69999997803461	88	0	dWE(1).Potential/dt < 1E-06 V/s	
10.384746973781	0.05340576171875	8.79999997778214	89	0	dWE(1).Potential/dt < 1E-06 V/s , dWE(1).Potential/dt > -1E-06 V/s	
10.4847469735286	0.05340576171875	8.89999997752966	90	0	dWE(1).Potential/dt < 1E-06 V/s , dWE(1).Potential/dt > -1E-06 V/s	
