Time (s)	WE(1).Potential (V)	Corrected time (s)	Index	dWE(1).Potential/dt (V/s)	Cutoffs	OCP value (V)
1.30974199669322	0.003558349609375	0	1	0	dWE(1).Potential/dt < 1E-06 V/s	0.0035487455480239
1.40974199644074	0.003558349609375	0.0999999997475243	2	0	dWE(1).Potential/dt < 1E-06 V/s	
1.50974199618827	0.003558349609375	0.199999999495049	3	-1.16415299622474E-09	dWE(1).Potential/dt < 1E-06 V/s	
1.60974199593579	0.00356140136718749	0.299999999242573	4	5.59453110327013E-05		
1.70974199568332	0.003570556640625	0.399999998990097	5	0.000132251647301018		
1.80974199543084	0.0035675048828125	0.499999998737621	6	-0.000152590175275691	dWE(1).Potential/dt < 1E-06 V/s	
1.90974199517837	0.003570556640625	0.599999998485146	7	0.000122073077363893		
2.00974199492589	0.00356140136718749	0.69999999823267	8	-0.000213626713957638	dWE(1).Potential/dt < 1E-06 V/s	
2.10974199467341	0.00354614257812499	0.799999997980194	9	-0.000162755561177619	dWE(1).Potential/dt < 1E-06 V/s	
2.20974199442094	0.00356445312500001	0.899999997727718	10	0.000483201089082286		
2.30974199416846	0.0035552978515625	0.999999997475243	11	-0.000432343105785549	dWE(1).Potential/dt < 1E-06 V/s	
2.40974199391599	0.00357666015624999	1.09999999722277	12	0.000559490348678082		
2.50974199366351	0.003570556640625	1.19999999697029	13	-0.000391635025152937	dWE(1).Potential/dt < 1E-06 V/s	
2.60974199341103	0.00357666015624999	1.29999999671782	14	0.000254306884016842		
2.70974199315856	0.0035675048828125	1.39999999646534	15	-0.000259390362771228	dWE(1).Potential/dt < 1E-06 V/s	
2.80974199290608	0.0035736083984375	1.49999999621286	16	0.00023905182024464		
2.90974199265361	0.00355224609375	1.59999999596039	17	-0.000493369589094073	dWE(1).Potential/dt < 1E-06 V/s	
3.00974199240113	0.003558349609375	1.69999999570791	18	0.000381471967557445		
3.10974199214866	0.003570556640625	1.79999999545544	19	8.13766164355911E-05		
3.20974199189618	0.0035736083984375	1.89999999520296	20	-6.61215599393472E-05	dWE(1).Potential/dt < 1E-06 V/s	
3.3097419916437	0.003570556640625	1.99999999495049	21	-5.08649463881738E-05	dWE(1).Potential/dt < 1E-06 V/s	
3.40974199139123	0.00357971191406251	2.09999999469801	22	0.000213626713957638		
3.50974199113875	0.00356140136718749	2.19999999444553	23	-0.000452687090728432	dWE(1).Potential/dt < 1E-06 V/s	
3.60974199088628	0.00355224609375	2.29999999419306	24	7.63063435442746E-05		
3.7097419906338	0.0035552978515625	2.39999999394058	25	0.000101723686384503		
3.80974199038133	0.00356445312500001	2.49999999368811	26	0.000101726785942446		
3.90974199012885	0.0035736083984375	2.59999999343563	27	7.11988177499734E-05		
4.00974198987637	0.003558349609375	2.69999999318316	28	-0.000356038333848119	dWE(1).Potential/dt < 1E-06 V/s	
4.1097419896239	0.003582763671875	2.79999999293068	29	0.000656127464026213		
4.20974198937142	0.00354919433593751	2.8999999926782	30	-0.000951124588027596	dWE(1).Potential/dt < 1E-06 V/s	
4.30974198911895	0.003558349609375	2.99999999242573	31	0.000640859187114984		
4.40974198886647	0.0035736083984375	3.09999999217325	32	6.10349852649961E-05		
4.509741988614	0.00356445312500001	3.19999999192078	33	-0.000315347308060154	dWE(1).Potential/dt < 1E-06 V/s	
4.60974198836152	0.00357666015624999	3.2999999916683	34	0.000381461111828685		
4.70974198810904	0.00356445312500001	3.39999999141583	35	-0.000396714603994042	dWE(1).Potential/dt < 1E-06 V/s	
4.80974198785657	0.00354919433593751	3.49999999116335	36	-9.66479783528484E-05	dWE(1).Potential/dt < 1E-06 V/s	
4.90974198760409	0.0035675048828125	3.59999999091087	37	0.000473020161734894		
5.00974198735162	0.00355224609375	3.6999999906584	38	-0.000544222886674106	dWE(1).Potential/dt < 1E-06 V/s	
5.10974198709914	0.0035858154296875	3.79999999040592	39	0.000854492885991931		
5.20974198684667	0.0035552978515625	3.89999999015345	40	-0.00100199494045228	dWE(1).Potential/dt < 1E-06 V/s	
5.30974198659419	0.00357666015624999	3.99999998990097	41	0.000859575578942895		
5.40974198634171	0.003558349609375	4.0999999896485	42	-0.00068663916317746	dWE(1).Potential/dt < 1E-06 V/s	
5.50974198608924	0.00357971191406251	4.19999998939602	43	0.000676469120662659		
5.60974198583676	0.0035736083984375	4.29999998914354	44	-0.00042216686415486	dWE(1).Potential/dt < 1E-06 V/s	
5.70974198558429	0.0035552978515625	4.39999998889107	45	-0.000193276559002697	dWE(1).Potential/dt < 1E-06 V/s	
5.80974198533181	0.0035675048828125	4.49999998863859	46	0.000417075643781573		
5.90974198507934	0.003558349609375	4.59999998838612	47	-0.000371295725926757	dWE(1).Potential/dt < 1E-06 V/s	
6.00974198482686	0.003570556640625	4.69999998813364	48	0.00037129339762032		
6.10974198457438	0.003558349609375	4.79999998788117	49	-0.000396728573832661	dWE(1).Potential/dt < 1E-06 V/s	
6.20974198432191	0.0035736083984375	4.89999998762869	50	0.000462846248410642		
6.30974198406943	0.00356445312500001	4.99999998737621	51	-0.000386554660508409	dWE(1).Potential/dt < 1E-06 V/s	
6.40974198381696	0.00356445312500001	5.09999998712374	52	0.000157670539920218		
6.50974198356448	0.00356445312500001	5.19999998687126	53	-3.05186586047057E-05	dWE(1).Potential/dt < 1E-06 V/s	
6.60974198331201	0.00357666015624999	5.29999998661879	54	0.000223789000301622		
6.70974198305953	0.00356140136718749	5.39999998636631	55	-0.000422151351813227	dWE(1).Potential/dt < 1E-06 V/s	
6.80974198280705	0.00355224609375	5.49999998611383	56	5.08672746946104E-05		
6.90974198255458	0.003558349609375	5.59999998586136	57	0.000167844467796385		
7.0097419823021	0.003558349609375	5.69999998560888	58	-0.000101729892776348	dWE(1).Potential/dt < 1E-06 V/s	
7.10974198204963	0.00356445312500001	5.79999998535641	59	0.000132243891130202		
7.20974198179715	0.00356140136718749	5.89999998510393	60	-0.000127165083540604	dWE(1).Potential/dt < 1E-06 V/s	
7.30974198154468	0.00357971191406251	5.99999998485146	61	0.000391655979910865		
7.4097419812922	0.0035736083984375	6.09999998459898	62	-0.000335706019541249	dWE(1).Potential/dt < 1E-06 V/s	
7.50974198103972	0.0035552978515625	6.1999999843465	63	-0.00020344891527202	dWE(1).Potential/dt < 1E-06 V/s	
7.60974198078725	0.0035675048828125	6.29999998409403	64	0.000417075643781573		
7.70974198053477	0.0035736083984375	6.39999998384155	65	-9.15513155632652E-05	dWE(1).Potential/dt < 1E-06 V/s	
7.8097419802823	0.0035675048828125	6.49999998358908	66	-0.000142417819006369	dWE(1).Potential/dt < 1E-06 V/s	
7.90974198002982	0.00356445312500001	6.5999999833366	67	3.56098862539511E-05		
8.00974197977735	0.00357666015624999	6.69999998308413	68	0.000239043278270401		
8.10974197952487	0.0035675048828125	6.79999998283165	69	-0.000320422230288386	dWE(1).Potential/dt < 1E-06 V/s	
8.20974197927239	0.00357971191406251	6.89999998257917	70	0.000371298054233193		
8.30974197901992	0.0035675048828125	6.9999999823267	71	-0.000396735558751971	dWE(1).Potential/dt < 1E-06 V/s	
8.40974197876744	0.00356140136718749	7.09999998207422	72	7.12112378096208E-05		
8.50974197851497	0.00357971191406251	7.19999998182175	73	0.00036621923209168		
8.60974197826249	0.003570556640625	7.29999998156927	74	-0.000401826022425666	dWE(1).Potential/dt < 1E-06 V/s	
8.70974197801002	0.0035675048828125	7.3999999813168	75	0.000111903034849092		
8.80974197775754	0.0035736083984375	7.49999998106432	76	0.000116984949272592		
8.90974197750506	0.0035736083984375	7.59999998081184	77	-8.13851584098302E-05	dWE(1).Potential/dt < 1E-06 V/s	
9.00974197725259	0.00357666015624999	7.69999998055937	78	7.62900453992188E-05		
9.10974197700011	0.00357971191406251	7.79999998030689	79	2.03563777176896E-05		
9.20974197674764	0.0035736083984375	7.89999998005442	80	-0.000137341325171292	dWE(1).Potential/dt < 1E-06 V/s	
9.30974197649516	0.00357666015624999	7.99999997980194	81	0.000137328141136095		
9.40974197624269	0.00356445312500001	8.09999997954947	82	-0.000279733532806858	dWE(1).Potential/dt < 1E-06 V/s	
9.50974197599021	0.003570556640625	8.19999997929699	83	0.000264474598225206		
9.60974197573773	0.003558349609375	8.29999997904451	84	-0.000335690478095785	dWE(1).Potential/dt < 1E-06 V/s	
9.70974197548526	0.00357666015624999	8.39999997879204	85	0.000498448382131755		
9.80974197523278	0.003570556640625	8.49999997853956	86	-0.000366202148143202	dWE(1).Potential/dt < 1E-06 V/s	
9.90974197498031	0.00357971191406251	8.59999997828709	87	0.000300088373478502		
10.0097419747278	0.0035888671875	8.69999997803461	88	4.06817125622183E-05		
10.1097419744754	0.0035552978515625	8.79999997778214	89	-0.000691730354446918	dWE(1).Potential/dt < 1E-06 V/s	
10.2097419742229	0.0035736083984375	8.89999997752966	90	0.000757852685637772		
10.3097419739704	0.003570556640625	8.99999997727718	91	-0.000381471967557445	dWE(1).Potential/dt < 1E-06 V/s	
10.4097419737179	0.003558349609375	9.09999997702471	92	-0.000127156541566364	dWE(1).Potential/dt < 1E-06 V/s	
10.5097419734655	0.0035675048828125	9.19999997677223	93	0.000300088373478502		
10.609741973213	0.0035675048828125	9.29999997651976	94	-0.000147496626595967	dWE(1).Potential/dt < 1E-06 V/s	
10.7097419729605	0.00356140136718749	9.39999997626728	95	-8.13812730484642E-05	dWE(1).Potential/dt < 1E-06 V/s	
10.809741972708	0.00354919433593751	9.49999997601481	96	-0.00015257931954693	dWE(1).Potential/dt < 1E-06 V/s	
10.9097419724555	0.003558349609375	9.59999997576233	97	0.000289904361125082		
11.0097419722031	0.00356445312500001	9.69999997550985	98	-3.55997981387191E-05	dWE(1).Potential/dt < 1E-06 V/s	
11.1097419719506	0.0035675048828125	9.79999997525738	99	1.52535076267668E-05		
11.2097419716981	0.00356140136718749	9.8999999750049	100	-0.000127152670756914	dWE(1).Potential/dt < 1E-06 V/s	
11.3097419714456	0.00356445312500001	9.99999997475243	101	0.000137337454361841		
11.4097419711932	0.0035675048828125	10.0999999745	102	-1.00893258192514E-08	dWE(1).Potential/dt < 1E-06 V/s	
11.5097419709407	0.003558349609375	10.1999999742475	103	-0.000193272673641331	dWE(1).Potential/dt < 1E-06 V/s	
11.6097419706882	0.0035675048828125	10.299999973995	104	0.000284827867290005		
11.7097419704357	0.00356140136718749	10.3999999737425	105	-0.000249225733568892	dWE(1).Potential/dt < 1E-06 V/s	
11.8097419701833	0.00357666015624999	10.49999997349	106	0.000381473510060459		
11.9097419699308	0.00356140136718749	10.5999999732376	107	-0.000478107511298731	dWE(1).Potential/dt < 1E-06 V/s	
12.0097419696783	0.003558349609375	10.6999999729851	108	0.000172935688169673		
12.1097419694258	0.0035675048828125	10.7999999727326	109	0.000152583204908296		
12.2097419691734	0.0035675048828125	10.8999999724801	110	-0.000116978742880747	dWE(1).Potential/dt < 1E-06 V/s	
12.3097419689209	0.0035675048828125	10.9999999722277	111	3.05202083836775E-05		
12.4097419686684	0.003558349609375	11.0999999719752	112	-0.000167846796102822	dWE(1).Potential/dt < 1E-06 V/s	
12.5097419684159	0.0035675048828125	11.1999999717227	113	0.000274655496468768		
12.6097419681635	0.0035552978515625	11.2999999714702	114	-0.000361121026799083	dWE(1).Potential/dt < 1E-06 V/s	
12.709741967911	0.00356445312500001	11.3999999712178	115	0.000340780941769481		
12.8097419676585	0.00354919433593751	11.4999999709653	116	-0.000427251099608839	dWE(1).Potential/dt < 1E-06 V/s	
12.909741967406	0.00356140136718749	11.5999999707128	117	0.000432326050940901		
13.0097419671536	0.00356140136718749	11.6999999704603	118	-0.000193269574083388	dWE(1).Potential/dt < 1E-06 V/s	
13.1097419669011	0.00356140136718749	11.7999999702079	119	4.06910257879645E-05		
13.2097419666486	0.0035552978515625	11.8999999699554	120	-0.000111893721623346	dWE(1).Potential/dt < 1E-06 V/s	
13.3097419663961	0.00356140136718749	11.9999999697029	121	0.000183099531568587		
13.4097419661437	0.0035552978515625	12.0999999694504	122	-0.000203442716156133	dWE(1).Potential/dt < 1E-06 V/s	
13.5097419658912	0.00354614257812499	12.199999969198	123	-7.63001371524297E-05	dWE(1).Potential/dt < 1E-06 V/s	
13.6097419656387	0.0035675048828125	12.2999999689455	124	0.000478117610327899		
13.7097419653862	0.00354919433593751	12.399999968693	125	-0.000615436409134418	dWE(1).Potential/dt < 1E-06 V/s	
13.8097419651338	0.00356445312500001	12.4999999684405	126	0.000564569141715765		
13.9097419648813	0.0035675048828125	12.5999999681881	127	-0.000183108058990911	dWE(1).Potential/dt < 1E-06 V/s	
14.0097419646288	0.0035552978515625	12.6999999679356	128	-0.000208530836971477	dWE(1).Potential/dt < 1E-06 V/s	
14.1097419643763	0.00355224609375	12.7999999676831	129	9.66386651271023E-05		
14.2097419641239	0.00354614257812499	12.8999999674306	130	-0.000116984178021085	dWE(1).Potential/dt < 1E-06 V/s	
14.3097419638714	0.003558349609375	12.9999999671782	131	0.000284835638012737		
14.4097419636189	0.00356140136718749	13.0999999669257	132	-0.000106820341898128	dWE(1).Potential/dt < 1E-06 V/s	
14.5097419633664	0.00355224609375	13.1999999666732	133	-0.000162750133313239	dWE(1).Potential/dt < 1E-06 V/s	
14.6097419631139	0.0035552978515625	13.2999999664207	134	0.000172931817360222		
14.7097419628615	0.00356140136718749	13.3999999661683	135	4.57729402114637E-05		
14.809741962609	0.003570556640625	13.4999999659158	136	0.000106818792119157		
14.9097419623565	0.00354919433593751	13.5999999656633	137	-0.000478109839605168	dWE(1).Potential/dt < 1E-06 V/s	
15.009741962104	0.00356445312500001	13.6999999654108	138	0.000559484120458364		
15.1097419618516	0.0035552978515625	13.7999999651583	139	-0.000417077186284587	dWE(1).Potential/dt < 1E-06 V/s	
15.2097419615991	0.00354919433593751	13.8999999649059	140	4.57822534372099E-05		
15.3097419613466	0.0035400390625	13.9999999646534	141	-0.000127164312289096	dWE(1).Potential/dt < 1E-06 V/s	
15.4097419610941	0.0035675048828125	14.0999999644009	142	0.000590011361055076		
15.5097419608417	0.00356140136718749	14.1999999641484	143	-0.000462850148323923	dWE(1).Potential/dt < 1E-06 V/s	
15.6097419605892	0.00354919433593751	14.299999963896	144	-6.10264505667146E-05	dWE(1).Potential/dt < 1E-06 V/s	
15.7097419603367	0.003558349609375	14.3999999636435	145	0.000289904361125082		
15.8097419600842	0.0035400390625	14.499999963391	146	-0.000483193318359554	dWE(1).Potential/dt < 1E-06 V/s	
15.9097419598318	0.00354614257812499	14.5999999631385	147	0.000356036762241274		
16.0097419595793	0.0035247802734375	14.6999999628861	148	-0.000523877388332039	dWE(1).Potential/dt < 1E-06 V/s	
16.1097419593268	0.003558349609375	14.7999999626336	149	0.000885004585143179		
16.2097419590743	0.00354919433593751	14.8999999623811	150	-0.000630696129519492	dWE(1).Potential/dt < 1E-06 V/s	
16.3097419588219	0.0035400390625	14.9999999621286	151	5.08564080519136E-05		
16.4097419585694	0.0035400390625	15.0999999618762	152	7.62978088459931E-05		
16.5097419583169	0.00356445312500001	15.1999999616237	153	0.000417075643781573		
16.6097419580644	0.00353393554687501	15.2999999613712	154	-0.000844324415083975	dWE(1).Potential/dt < 1E-06 V/s	
16.709741957812	0.0035430908203125	15.3999999611187	155	0.00060526019660756		
16.8097419575595	0.0035430908203125	15.4999999608663	156	-0.000208537050639279	dWE(1).Potential/dt < 1E-06 V/s	
16.909741957307	0.00355224609375	15.5999999606138	157	0.000198363894014619		
17.0097419570545	0.0035400390625	15.6999999603613	158	-0.000330603128531948	dWE(1).Potential/dt < 1E-06 V/s	
17.1097419568021	0.0035369873046875	15.7999999601088	159	0.000116984178021085		
17.2097419565496	0.0035552978515625	15.8999999598564	160	0.000330609356751665		
17.3097419562971	0.003558349609375	15.9999999596039	161	-0.000167849124409258	dWE(1).Potential/dt < 1E-06 V/s	
17.4097419560446	0.0035369873046875	16.0999999593514	162	-0.000366212247172371	dWE(1).Potential/dt < 1E-06 V/s	
17.5097419557922	0.00355224609375	16.1999999590989	163	0.000539148692041636		
17.6097419555397	0.0035400390625	16.2999999588465	164	-0.000473020947538316	dWE(1).Potential/dt < 1E-06 V/s	
17.7097419552872	0.00355224609375	16.399999958594	165	0.000417073315475136		
17.8097419550347	0.0035430908203125	16.4999999583415	166	-0.000350950984284282	dWE(1).Potential/dt < 1E-06 V/s	
17.9097419547822	0.0035400390625	16.599999958089	167	9.15489872568287E-05		
18.0097419545298	0.00356140136718749	16.6999999578366	168	0.000396727031329647		
18.1097419542773	0.00353088378906249	16.7999999575841	169	-0.000818883010651916	dWE(1).Potential/dt < 1E-06 V/s	
18.2097419540248	0.003558349609375	16.8999999573316	170	0.000930788402911276		
18.3097419537723	0.0035430908203125	16.9999999570791	171	-0.00070191128179431	dWE(1).Potential/dt < 1E-06 V/s	
18.4097419535199	0.00354919433593751	17.0999999568267	172	0.000381471181754023		
18.5097419532674	0.00354919433593751	17.1999999565742	173	-0.0001220738486154	dWE(1).Potential/dt < 1E-06 V/s	
18.6097419530149	0.00353088378906249	17.2999999563217	174	-0.000315354292979464	dWE(1).Potential/dt < 1E-06 V/s	
18.7097419527624	0.0035369873046875	17.3999999560692	175	0.000325532862916589		
18.80974195251	0.0035400390625	17.4999999558167	176	-7.62954805395566E-05	dWE(1).Potential/dt < 1E-06 V/s	
18.9097419522575	0.00352783203125	17.5999999555643	177	-0.000239056476857513	dWE(1).Potential/dt < 1E-06 V/s	
19.009741952005	0.00355224609375	17.6999999553118	178	0.000600177503656596		
19.1097419517525	0.0035552978515625	17.7999999550593	179	-0.00026956814690493	dWE(1).Potential/dt < 1E-06 V/s	
19.2097419515001	0.00352783203125	17.8999999548068	180	-0.000457765883766115	dWE(1).Potential/dt < 1E-06 V/s	
19.3097419512476	0.0035552978515625	17.9999999545544	181	0.000834144302643836		
19.4097419509951	0.00355224609375	18.0999999543019	182	-0.000467933597974479	dWE(1).Potential/dt < 1E-06 V/s	
19.5097419507426	0.00355224609375	18.1999999540494	183	0.00012716042692773		
19.6097419504902	0.00354919433593751	18.2999999537969	184	-6.61176818539388E-05	dWE(1).Potential/dt < 1E-06 V/s	
19.7097419502377	0.00355224609375	18.3999999535445	185	9.15451091714203E-05		
19.8097419499852	0.00354614257812499	18.499999953292	186	-0.000157670539920218	dWE(1).Potential/dt < 1E-06 V/s	
19.9097419497327	0.0035552978515625	18.5999999530395	187	0.000249232718488202		
20.0097419494803	0.00353088378906249	18.699999952787	188	-0.000574753968976438	dWE(1).Potential/dt < 1E-06 V/s	
20.1097419492278	0.00353088378906249	18.7999999525346	189	0.000315353507176042		
20.2097419489753	0.0035247802734375	18.8999999522821	190	-0.000193274230696261	dWE(1).Potential/dt < 1E-06 V/s	
20.3097419487228	0.00356140136718749	18.9999999520296	191	0.000742588308639824		
20.4097419484704	0.0035369873046875	19.0999999517771	192	-0.000895173056051135	dWE(1).Potential/dt < 1E-06 V/s	
20.5097419482179	0.00355224609375	19.1999999515247	193	0.000686645333189517		
20.6097419479654	0.00356140136718749	19.2999999512722	194	-9.15536438697018E-05	dWE(1).Potential/dt < 1E-06 V/s	
20.7097419477129	0.00353393554687501	19.3999999510197	195	-0.000559480278752744	dWE(1).Potential/dt < 1E-06 V/s	
20.8097419474605	0.00355224609375	19.4999999507672	196	0.000686635263264179		
20.909741947208	0.00355224609375	19.5999999505148	197	-0.000305167952319607	dWE(1).Potential/dt < 1E-06 V/s	
21.0097419469555	0.00355224609375	19.6999999502623	198	6.10373172094114E-05		
21.109741946703	0.00355224609375	19.7999999500098	199	2.32830599244949E-09	dWE(1).Potential/dt < 1E-06 V/s	
21.2097419464505	0.00354919433593751	19.8999999497573	200	-5.59453110327013E-05	dWE(1).Potential/dt < 1E-06 V/s	
21.3097419461981	0.0035552978515625	19.9999999495049	201	0.000147492741234601		
21.4097419459456	0.00354919433593751	20.0999999492524	202	-0.000193271902389824	dWE(1).Potential/dt < 1E-06 V/s	
21.5097419456931	0.00355224609375	20.1999999489999	203	0.000147495069541037		
21.6097419454406	0.0035430908203125	20.2999999487474	204	-0.000223790557356551	dWE(1).Potential/dt < 1E-06 V/s	
21.7097419451882	0.0035430908203125	20.399999948495	205	0.000116978742880747		
21.8097419449357	0.0035369873046875	20.4999999482425	206	-0.000142415490699932	dWE(1).Potential/dt < 1E-06 V/s	
21.9097419446832	0.00353393554687501	20.59999994799	207	1.52651500684442E-05		
22.0097419444307	0.00354614257812499	20.6999999477375	208	0.000239043278270401		
22.1097419441783	0.0035369873046875	20.799999947485	209	-0.000320422230288386	dWE(1).Potential/dt < 1E-06 V/s	
22.2097419439258	0.003558349609375	20.8999999472326	210	0.000539140950422734		
22.3097419436733	0.00354614257812499	20.9999999469801	211	-0.00050354580162093	dWE(1).Potential/dt < 1E-06 V/s	
22.4097419434208	0.00354614257812499	21.0999999467276	212	0.000213629042264074		
22.5097419431684	0.00355224609375	21.1999999464751	213	7.12127875885926E-05		
22.6097419429159	0.00355224609375	21.2999999462227	214	-7.12073524482548E-05	dWE(1).Potential/dt < 1E-06 V/s	
22.7097419426634	0.00354919433593751	21.3999999459702	215	-3.55997981387191E-05	dWE(1).Potential/dt < 1E-06 V/s	
22.8097419424109	0.0035400390625	21.4999999457177	216	-0.000132251647301018	dWE(1).Potential/dt < 1E-06 V/s	
22.9097419421585	0.00353393554687501	21.5999999454652	217	-1.52527318277862E-05	dWE(1).Potential/dt < 1E-06 V/s	
23.009741941906	0.00356140136718749	21.6999999452128	218	0.000544219743460417		
23.1097419416535	0.00354919433593751	21.7999999449603	219	-0.000564561400096864	dWE(1).Potential/dt < 1E-06 V/s	
23.209741941401	0.0035430908203125	21.8999999447078	220	0.000122057557746302		
23.3097419411486	0.0035400390625	21.9999999444553	221	-2.54297574429074E-05	dWE(1).Potential/dt < 1E-06 V/s	
23.4097419408961	0.0035400390625	22.0999999442029	222	1.52597167470958E-05		
23.5097419406436	0.00355224609375	22.1999999439504	223	0.000213624385651201		
23.6097419403911	0.00354614257812499	22.2999999436979	224	-0.000254313083132729	dWE(1).Potential/dt < 1E-06 V/s	
23.7097419401387	0.00354614257812499	22.3999999434454	225	0.000111901485070121		
23.8097419398862	0.00354614257812499	22.499999943193	226	-2.0343961296021E-05	dWE(1).Potential/dt < 1E-06 V/s	
23.9097419396337	0.00354614257812499	22.5999999429405	227	1.55220392095146E-09	dWE(1).Potential/dt < 1E-06 V/s	
24.0097419393812	0.003558349609375	22.699999942688	228	0.000223798313527368		
24.1097419391288	0.0035430908203125	22.7999999424355	229	-0.00042216686415486	dWE(1).Potential/dt < 1E-06 V/s	
24.2097419388763	0.0035369873046875	22.8999999421831	230	0.000106811807199847		
24.3097419386238	0.00354919433593751	22.9999999419306	231	0.000244146940531209		
24.4097419383713	0.00354919433593751	23.0999999416781	232	-0.000162766431458294	dWE(1).Potential/dt < 1E-06 V/s	
24.5097419381189	0.00354919433593751	23.1999999414256	233	4.06886974815279E-05		
24.6097419378664	0.0035400390625	23.2999999411732	234	-0.000167850681464188	dWE(1).Potential/dt < 1E-06 V/s	
24.7097419376139	0.00354614257812499	23.3999999409207	235	0.000218710192712024		
24.8097419373614	0.0035430908203125	23.4999999406682	236	-0.000157668211613782	dWE(1).Potential/dt < 1E-06 V/s	
24.9097419371089	0.003558349609375	23.5999999404157	237	0.000335685821482912		
25.0097419368565	0.00354919433593751	23.6999999401633	238	-0.000356036762241274	dWE(1).Potential/dt < 1E-06 V/s	
25.109741936604	0.0035552978515625	23.7999999399108	239	0.000269565818598494		
25.2097419363515	0.0035400390625	23.8999999396583	240	-0.000381465768441558	dWE(1).Potential/dt < 1E-06 V/s	
25.309741936099	0.003558349609375	23.9999999394058	241	0.000534055929165334		
25.4097419358466	0.0035430908203125	24.0999999391533	242	-0.000544233713299036	dWE(1).Potential/dt < 1E-06 V/s	
25.5097419355941	0.003570556640625	24.1999999389009	243	0.000742592965252697		
25.6097419353416	0.0035552978515625	24.2999999386484	244	-0.000651040114462376	dWE(1).Potential/dt < 1E-06 V/s	
25.7097419350891	0.00355224609375	24.3999999383959	245	0.000213624385651201		
25.8097419348367	0.0035552978515625	24.4999999381434	246	4.06925792049151E-05		
25.9097419345842	0.00355224609375	24.599999937891	247	-0.000101725236163475	dWE(1).Potential/dt < 1E-06 V/s	
26.0097419343317	0.0035369873046875	24.6999999376385	248	-0.000233964470680803	dWE(1).Potential/dt < 1E-06 V/s	
26.1097419340792	0.003558349609375	24.799999937386	249	0.000559488777071238		
26.2097419338268	0.00355224609375	24.8999999371335	250	-0.00041198983672075	dWE(1).Potential/dt < 1E-06 V/s	
26.3097419335743	0.0035552978515625	24.9999999368811	251	0.000198367779375985		
26.4097419333218	0.003558349609375	25.0999999366286	252	-2.32830599244949E-09	dWE(1).Potential/dt < 1E-06 V/s	
26.5097419330693	0.0035430908203125	25.1999999363761	253	-0.00030517959385179	dWE(1).Potential/dt < 1E-06 V/s	
26.6097419328169	0.0035430908203125	25.2999999361236	254	0.00018818920943886		
26.7097419325644	0.0035430908203125	25.3999999358712	255	-5.08649463881738E-05	dWE(1).Potential/dt < 1E-06 V/s	
26.8097419323119	0.00355224609375	25.4999999356187	256	0.000167846796102822		
26.9097419320594	0.00354919433593751	25.5999999353662	257	-0.000162754018674605	dWE(1).Potential/dt < 1E-06 V/s	
27.009741931807	0.00355224609375	25.6999999351137	258	0.000122062985610683		
27.1097419315545	0.00355224609375	25.7999999348613	259	-4.57690621260554E-05	dWE(1).Potential/dt < 1E-06 V/s	
27.209741931302	0.0035369873046875	25.8999999346088	260	-0.000269569689407945	dWE(1).Potential/dt < 1E-06 V/s	
27.3097419310495	0.00354614257812499	25.9999999343563	261	0.000345864420523867		
27.4097419307971	0.00354919433593751	26.0999999341038	262	-0.000101716701465193	dWE(1).Potential/dt < 1E-06 V/s	
27.5097419305446	0.00356140136718749	26.1999999338514	263	0.000218695437069982		
27.6097419302921	0.00354919433593751	26.2999999335989	264	-0.0003560243640095	dWE(1).Potential/dt < 1E-06 V/s	
27.7097419300396	0.0035430908203125	26.3999999333464	265	7.1194939664565E-05		
27.8097419297872	0.00353393554687501	26.4999999330939	266	-0.000137325027026236	dWE(1).Potential/dt < 1E-06 V/s	
27.9097419295347	0.0035675048828125	26.5999999328415	267	0.000701898825354874		
28.0097419292822	0.0035400390625	26.699999932589	268	-0.000925693311728537	dWE(1).Potential/dt < 1E-06 V/s	
28.1097419290297	0.00354919433593751	26.7999999323365	269	0.000600179831963032		
28.2097419287772	0.00354614257812499	26.899999932084	270	-0.000254323182161897	dWE(1).Potential/dt < 1E-06 V/s	
28.3097419285248	0.0035400390625	26.9999999318316	271	-4.57651804026682E-05	dWE(1).Potential/dt < 1E-06 V/s	
28.4097419282723	0.0035430908203125	27.0999999315791	272	0.000116978742880747		
28.5097419280198	0.00355224609375	27.1999999313266	273	0.000111896828457247		
28.6097419277673	0.00354614257812499	27.2999999310741	274	-0.00020853549358435	dWE(1).Potential/dt < 1E-06 V/s	
28.7097419275149	0.0035552978515625	27.3999999308217	275	0.000269578245934099		
28.8097419272624	0.00354614257812499	27.4999999305692	276	-0.000295009551336989	dWE(1).Potential/dt < 1E-06 V/s	
28.9097419270099	0.00355224609375	27.5999999303167	277	0.00024923583259806		
29.0097419267574	0.0035400390625	27.6999999300642	278	-0.000325522007187828	dWE(1).Potential/dt < 1E-06 V/s	
29.109741926505	0.0035400390625	27.7999999298117	279	0.000162759446538985		
29.2097419262525	0.00353088378906249	27.8999999295593	280	-0.000208539378945716	dWE(1).Potential/dt < 1E-06 V/s	
29.309741926	0.00355224609375	27.9999999293068	281	0.000498462351970375		
29.4097419257475	0.0035430908203125	28.0999999290543	282	-0.000447593512944877	dWE(1).Potential/dt < 1E-06 V/s	
29.5097419254951	0.0035430908203125	28.1999999288018	283	0.000178014510311186		
29.6097419252426	0.0035430908203125	28.2999999285494	284	-3.05202083836775E-05	dWE(1).Potential/dt < 1E-06 V/s	
29.7097419249901	0.00355224609375	28.3999999282969	285	0.000167846796102822		
29.8097419247376	0.00353393554687501	28.4999999280444	286	-0.000442498421762139	dWE(1).Potential/dt < 1E-06 V/s	
29.9097419244852	0.00352783203125	28.5999999277919	287	0.000132233035401441		
30.0097419242327	0.0035369873046875	28.6999999275395	288	0.000178021495230496		
30.1097419239802	0.00354919433593751	28.799999927287	289	9.66448715189472E-05		
30.2097419237277	0.0035430908203125	28.8999999270345	290	-0.000223805298446678	dWE(1).Potential/dt < 1E-06 V/s	
30.3097419234753	0.00355224609375	28.999999926782	291	0.000279746716842055		
30.4097419232228	0.00353393554687501	29.0999999265296	292	-0.000462843920104206	dWE(1).Potential/dt < 1E-06 V/s	
30.5097419229703	0.0035430908203125	29.1999999262771	293	0.000411977438488975		
30.6097419227178	0.0035369873046875	29.2999999260246	294	-0.000279742060229182	dWE(1).Potential/dt < 1E-06 V/s	
30.7097419224654	0.0035430908203125	29.3999999257721	295	0.000213625171454623		
30.8097419222129	0.00355224609375	29.4999999255197	296	7.62916024541482E-05		
30.9097419219604	0.00355224609375	29.5999999252672	297	-8.64616376929916E-05	dWE(1).Potential/dt < 1E-06 V/s	
31.0097419217079	0.00354919433593751	29.6999999250147	298	-2.54274291364709E-05	dWE(1).Potential/dt < 1E-06 V/s	
31.1097419214555	0.00354919433593751	29.7999999247622	299	3.55974698322825E-05		
31.209741921203	0.003558349609375	29.8999999245098	300	0.000157668997417204		
31.3097419209505	0.0035400390625	29.9999999242573	301	-0.000442503835074604	dWE(1).Potential/dt < 1E-06 V/s	
31.409741920698	0.00354614257812499	30.0999999240048	302	0.000356036762241274		
31.5097419204455	0.00355224609375	30.1999999237523	303	-2.03361996682361E-05	dWE(1).Potential/dt < 1E-06 V/s	
31.6097419201931	0.003558349609375	30.2999999234999	304	6.10326569585595E-05		
31.7097419199406	0.0035400390625	30.3999999232474	305	-0.000386559317121282	dWE(1).Potential/dt < 1E-06 V/s	
31.8097419196881	0.00354919433593751	30.4999999229949	306	0.000401818251702935		
31.9097419194356	0.0035430908203125	30.5999999227424	307	-0.000279752945061773	dWE(1).Potential/dt < 1E-06 V/s	
32.0097419191832	0.00354614257812499	30.69999992249	308	0.000157672868226655		
32.1097419189307	0.00353393554687501	30.7999999222375	309	-0.000279733532806858	dWE(1).Potential/dt < 1E-06 V/s	
32.2097419186782	0.0035400390625	30.899999921985	310	0.000264474598225206		
32.3097419184257	0.0035552978515625	30.9999999217325	311	0.000167850681464188		
32.4097419181733	0.0035430908203125	31.09999992148	312	-0.000381471181754023	dWE(1).Potential/dt < 1E-06 V/s	
32.5097419179208	0.00354919433593751	31.1999999212276	313	0.000305175723042339		
32.6097419176683	0.00354614257812499	31.2999999209751	314	-0.000167855338077061	dWE(1).Potential/dt < 1E-06 V/s	
32.7097419174158	0.00353088378906249	31.3999999207226	315	-0.000223786671995185	dWE(1).Potential/dt < 1E-06 V/s	
32.8097419171634	0.00354614257812499	31.4999999204701	316	0.000447591970441863		
32.9097419169109	0.00352783203125	31.5999999202177	317	-0.000564572284929454	dWE(1).Potential/dt < 1E-06 V/s	
33.0097419166584	0.00355224609375	31.6999999199652	318	0.000712072011083364		
33.1097419164059	0.0035400390625	31.7999999197127	319	-0.000569657306186855	dWE(1).Potential/dt < 1E-06 V/s	
33.2097419161535	0.00354919433593751	31.8999999194602	320	0.00039164355257526		
33.309741915901	0.00354919433593751	31.9999999192078	321	-0.00014750671107322	dWE(1).Potential/dt < 1E-06 V/s	
33.4097419156485	0.0035369873046875	32.0999999189553	322	-0.000193280429812148	dWE(1).Potential/dt < 1E-06 V/s	
33.509741915396	0.0035430908203125	32.1999999187028	323	0.000254317739745602		
33.6097419151436	0.00353088378906249	32.2999999184503	324	-0.000335699791321531	dWE(1).Potential/dt < 1E-06 V/s	
33.7097419148911	0.00354919433593751	32.3999999181979	325	0.000498464680276811		
33.8097419146386	0.00352783203125	32.4999999179454	326	-0.00064596749143675	dWE(1).Potential/dt < 1E-06 V/s	
33.9097419143861	0.00353088378906249	32.5999999176929	327	0.000366209918865934		
34.0097419141337	0.0035552978515625	32.6999999174404	328	0.00034078792668879		
34.1097419138812	0.00354919433593751	32.799999917188	329	-0.000386556988814846	dWE(1).Potential/dt < 1E-06 V/s	
34.2097419136287	0.00354614257812499	32.8999999169355	330	9.66293519013561E-05		
34.3097419133762	0.00354614257812499	32.999999916683	331	1.52674783748807E-05		
34.4097419131238	0.00354614257812499	33.0999999164305	332	-1.01715922937728E-05	dWE(1).Potential/dt < 1E-06 V/s	
34.5097419128713	0.0035430908203125	33.1999999161781	333	-5.59460859221872E-05	dWE(1).Potential/dt < 1E-06 V/s	
34.6097419126188	0.00354919433593751	33.2999999159256	334	0.000147498183650896		
34.7097419123663	0.00352783203125	33.3999999156731	335	-0.00047302947496064	dWE(1).Potential/dt < 1E-06 V/s	
34.8097419121139	0.00354919433593751	33.4999999154206	336	0.000661217898596078		
34.9097419118614	0.0035430908203125	33.5999999151682	337	-0.00043234002077952	dWE(1).Potential/dt < 1E-06 V/s	
35.0097419116089	0.0035430908203125	33.6999999149157	338	0.000142415490699932		
35.1097419113564	0.0035369873046875	33.7999999146632	339	-0.000132243119878694	dWE(1).Potential/dt < 1E-06 V/s	
35.2097419111039	0.0035369873046875	33.8999999144107	340	7.12127875885926E-05		
35.3097419108515	0.00353393554687501	33.9999999141583	341	-7.62900453992188E-05	dWE(1).Potential/dt < 1E-06 V/s	
35.409741910599	0.00354614257812499	34.0999999139058	342	0.000259388034464791		
35.5097419103465	0.00353393554687501	34.1999999136533	343	-0.000376369862351567	dWE(1).Potential/dt < 1E-06 V/s	
35.609741910094	0.00355224609375	34.2999999134008	344	0.000518788467161357		
35.7097419098416	0.003521728515625	34.3999999131483	345	-0.000813794147688895	dWE(1).Potential/dt < 1E-06 V/s	
35.8097419095891	0.0035400390625	34.4999999128959	346	0.000752767664380372		
35.9097419093366	0.0035430908203125	34.5999999126434	347	-0.000259402004303411	dWE(1).Potential/dt < 1E-06 V/s	
36.0097419090841	0.0035552978515625	34.6999999123909	348	0.000249224191065878		
36.1097419088317	0.00352783203125	34.7999999121384	349	-0.000635782722383738	dWE(1).Potential/dt < 1E-06 V/s	
36.2097419085792	0.00353393554687501	34.899999911886	350	0.00047302249004133		
36.3097419083267	0.00355224609375	34.9999999116335	351	0.000172927931998856		
36.4097419080742	0.00354919433593751	35.099999911381	352	-0.00024921799194999	dWE(1).Potential/dt < 1E-06 V/s	
36.5097419078218	0.0035430908203125	35.1999999111285	353	-1.5269029972842E-05	dWE(1).Potential/dt < 1E-06 V/s	
36.6097419075693	0.00354919433593751	35.2999999108761	354	0.000172936473973095		
36.7097419073168	0.00353393554687501	35.3999999106236	355	-0.000371301139239222	dWE(1).Potential/dt < 1E-06 V/s	
36.8097419070643	0.0035552978515625	35.4999999103711	356	0.000590002804528922		
36.9097419068119	0.0035369873046875	35.5999999101186	357	-0.000635778065770864	dWE(1).Potential/dt < 1E-06 V/s	
37.0097419065594	0.00353088378906249	35.6999999098662	358	0.000172932588611729		
37.1097419063069	0.0035400390625	35.7999999096137	359	0.000178025366039947		
37.2097419060544	0.003558349609375	35.8999999093612	360	0.000208531608222984		
37.309741905802	0.00354919433593751	35.9999999091087	361	-0.000350951740983874	dWE(1).Potential/dt < 1E-06 V/s	
37.4097419055495	0.00353393554687501	36.0999999088563	362	-0.000111901485070121	dWE(1).Potential/dt < 1E-06 V/s	
37.509741905297	0.00352783203125	36.1999999086038	363	3.55990196112543E-05		
37.6097419050445	0.00355224609375	36.2999999083513	364	0.000467938254587352		
37.7097419047921	0.00353088378906249	36.3999999080988	365	-0.000696816947311163	dWE(1).Potential/dt < 1E-06 V/s	
37.8097419045396	0.00353088378906249	36.4999999078464	366	0.00033061089925468		
37.9097419042871	0.0035369873046875	36.5999999075939	367	4.06949075113516E-05		
38.0097419040346	0.003521728515625	36.6999999073414	368	-0.000350951740983874	dWE(1).Potential/dt < 1E-06 V/s	
38.1097419037822	0.0035430908203125	36.7999999070889	369	0.000590006704442203		
38.2097419035297	0.0035400390625	36.8999999068365	370	-0.00035604220465757	dWE(1).Potential/dt < 1E-06 V/s	
38.3097419032772	0.00354919433593751	36.999999906584	371	0.000274661695584655		
38.4097419030247	0.0035552978515625	37.0999999063315	372	-5.093557319924E-06	dWE(1).Potential/dt < 1E-06 V/s	
38.5097419027722	0.0035369873046875	37.199999906079	373	-0.000376378418877721	dWE(1).Potential/dt < 1E-06 V/s	
38.6097419025198	0.00354919433593751	37.2999999058266	374	0.000457768212072551		
38.7097419022673	0.00355224609375	37.3999999055741	375	-0.000147509039379656	dWE(1).Potential/dt < 1E-06 V/s	
38.8097419020148	0.0035369873046875	37.4999999053216	376	-0.000274650839855894	dWE(1).Potential/dt < 1E-06 V/s	
38.9097419017623	0.00354919433593751	37.5999999050691	377	0.000411990622524172		
39.0097419015099	0.0035400390625	37.6999999048167	378	-0.000361133425030857	dWE(1).Potential/dt < 1E-06 V/s	
39.1097419012574	0.00354919433593751	37.7999999045642	379	0.000315354292979464		
39.2097419010049	0.00355224609375	37.8999999043117	380	-8.1386708188802E-05	dWE(1).Potential/dt < 1E-06 V/s	
39.3097419007524	0.0035430908203125	37.9999999040592	381	-0.000172927931998856	dWE(1).Potential/dt < 1E-06 V/s	
39.4097419005	0.0035430908203125	38.0999999038067	382	0.000116978742880747		
39.5097419002475	0.0035400390625	38.1999999035543	383	-8.64678440848365E-05	dWE(1).Potential/dt < 1E-06 V/s	
39.609741899995	0.00353393554687501	38.2999999033018	384	-7.62900453992188E-05	dWE(1).Potential/dt < 1E-06 V/s	
39.7097418997425	0.0035430908203125	38.3999999030493	385	0.000228873250307515		
39.8097418994901	0.00354614257812499	38.4999999027968	386	-7.12089095031843E-05	dWE(1).Potential/dt < 1E-06 V/s	
39.9097418992376	0.0035369873046875	38.5999999025444	387	-0.000172923275385983	dWE(1).Potential/dt < 1E-06 V/s	
40.0097418989851	0.00354614257812499	38.6999999022919	388	0.000284827081486583		
40.1097418987326	0.00355224609375	38.7999999020394	389	-2.54235474130837E-05	dWE(1).Potential/dt < 1E-06 V/s	
40.2097418984802	0.0035430908203125	38.8999999017869	390	-0.000208539378945716	dWE(1).Potential/dt < 1E-06 V/s	
40.3097418982277	0.00355224609375	38.9999999015345	391	0.000295001023914665		
40.4097418979752	0.00354919433593751	39.099999901282	392	-0.000193271902389824	dWE(1).Potential/dt < 1E-06 V/s	
40.5097418977227	0.00355224609375	39.1999999010295	393	0.000122062985610683		
40.6097418974703	0.0035400390625	39.299999900777	394	-0.000269565818598494	dWE(1).Potential/dt < 1E-06 V/s	
40.7097418972178	0.0035247802734375	39.3999999005246	395	-0.000127158098621294	dWE(1).Potential/dt < 1E-06 V/s	
40.8097418969653	0.0035430908203125	39.4999999002721	396	0.000473020947538316		
40.9097418967128	0.00353088378906249	39.5999999000196	397	-0.000488286081235856	dWE(1).Potential/dt < 1E-06 V/s	
41.0097418964604	0.00352783203125	39.6999998997671	398	0.000147509039379656		
41.1097418962079	0.0035400390625	39.7999998995147	399	0.000218703207792714		
41.2097418959554	0.0035400390625	39.8999998992622	400	-0.00015258630446624	dWE(1).Potential/dt < 1E-06 V/s	
41.3097418957029	0.00353088378906249	39.9999998990097	401	-0.000127158869872801	dWE(1).Potential/dt < 1E-06 V/s	
41.4097418954505	0.0035400390625	40.0999998987572	402	0.000274665595497936		
41.509741895198	0.0035430908203125	40.1999998985048	403	-8.13851584098302E-05	dWE(1).Potential/dt < 1E-06 V/s	
41.6097418949455	0.00354614257812499	40.2999998982523	404	5.08579614688642E-05		
41.709741894693	0.0035430908203125	40.3999998979998	405	-8.13727383501828E-05	dWE(1).Potential/dt < 1E-06 V/s	
41.8097418944405	0.00353088378906249	40.4999998977473	406	-0.000178027694346383	dWE(1).Potential/dt < 1E-06 V/s	
41.9097418941881	0.00353088378906249	40.5999998974949	407	0.000132249318994582		
42.0097418939356	0.0035400390625	40.6999998972424	408	0.00012716042692773		
42.1097418936831	0.00352783203125	40.7999998969899	409	-0.000330611685058102	dWE(1).Potential/dt < 1E-06 V/s	
42.2097418934306	0.0035430908203125	40.8999998967374	410	0.000452673877589405		
42.3097418931782	0.0035400390625	40.999999896485	411	-0.000274659367278218	dWE(1).Potential/dt < 1E-06 V/s	
42.4097418929257	0.00351867675781251	41.0999998962325	412	-0.000305171823129058	dWE(1).Potential/dt < 1E-06 V/s	
42.5097418926732	0.0035430908203125	41.19999989598	413	0.000686636834871024		
42.6097418924207	0.0035369873046875	41.2999998957275	414	-0.000467933597974479	dWE(1).Potential/dt < 1E-06 V/s	
42.7097418921683	0.00354614257812499	41.399999895475	415	0.000320435414323583		
42.8097418919158	0.0035369873046875	41.4999998952226	416	-0.00029499558149837	dWE(1).Potential/dt < 1E-06 V/s	
42.9097418916633	0.0035400390625	41.5999998949701	417	0.000193276559002697		
43.0097418914108	0.00353393554687501	41.6999998947176	418	-0.00017801760986913	dWE(1).Potential/dt < 1E-06 V/s	
43.1097418911584	0.0035369873046875	41.7999998944651	419	0.0001373226987198		
43.2097418909059	0.00353393554687501	41.8999998942127	420	-0.000111889065010473	dWE(1).Potential/dt < 1E-06 V/s	
43.3097418906534	0.0035400390625	41.9999998939602	421	0.000157665112055838		
43.4097418904009	0.00354614257812499	42.0999998937077	422	3.05186586047057E-05		
43.5097418901485	0.00354614257812499	42.1999998934552	423	-5.08579614688642E-05	dWE(1).Potential/dt < 1E-06 V/s	
43.609741889896	0.0035369873046875	42.2999998932028	424	-0.000147496626595967	dWE(1).Potential/dt < 1E-06 V/s	
43.7097418896435	0.0035400390625	42.3999998929503	425	0.000162759446538985		
43.809741889391	0.0035247802734375	42.4999998926978	426	-0.000345866719726473	dWE(1).Potential/dt < 1E-06 V/s	
43.9097418891386	0.0035400390625	42.5999998924453	427	0.000467935926280916		
44.0097418888861	0.0035369873046875	42.6999998921929	428	-0.000284829409793019	dWE(1).Potential/dt < 1E-06 V/s	
44.1097418886336	0.00352783203125	42.7999998919404	429	-8.13789447420277E-05	dWE(1).Potential/dt < 1E-06 V/s	
44.2097418883811	0.0035125732421875	42.8999998916879	430	-0.000183110387297347	dWE(1).Potential/dt < 1E-06 V/s	
44.3097418881287	0.0035369873046875	42.9999998914354	431	0.000595092482399195		
44.4097418878762	0.0035430908203125	43.099999891183	432	-0.000223792885662988	dWE(1).Potential/dt < 1E-06 V/s	
44.5097418876237	0.00353393554687501	43.1999998909305	433	-0.000157675196533091	dWE(1).Potential/dt < 1E-06 V/s	
44.6097418873712	0.00354614257812499	43.299999890678	434	0.00035094321356155		
44.7097418871188	0.003558349609375	43.3999998904255	435	5.08727061969694E-05		
44.8097418868663	0.003521728515625	43.4999998901731	436	-0.00077311706263572	dWE(1).Potential/dt < 1E-06 V/s	
44.9097418866138	0.00354614257812499	43.5999998899206	437	0.000915528682526201		
45.0097418863613	0.0035430908203125	43.6999998896681	438	-0.000462844705907628	dWE(1).Potential/dt < 1E-06 V/s	
45.1097418861089	0.00353393554687501	43.7999998894156	439	-5.08664998051245E-05	dWE(1).Potential/dt < 1E-06 V/s	
45.2097418858564	0.00353393554687501	43.8999998891632	440	9.6635558293201E-05		
45.3097418856039	0.0035430908203125	43.9999998889107	441	0.000137324255774729		
45.4097418853514	0.00353088378906249	44.0999998886582	442	-0.000330608570948243	dWE(1).Potential/dt < 1E-06 V/s	
45.5097418850989	0.0035369873046875	44.1999998884057	443	0.00028484029462561		
45.6097418848465	0.0035430908203125	44.2999998881533	444	-2.32830599244949E-09	dWE(1).Potential/dt < 1E-06 V/s	
45.709741884594	0.0035369873046875	44.3999998879008	445	-0.000162762546096928	dWE(1).Potential/dt < 1E-06 V/s	
45.8097418843415	0.00353088378906249	44.4999998876483	446	-2.0343961296021E-05	dWE(1).Potential/dt < 1E-06 V/s	
45.909741884089	0.0035247802734375	44.5999998873958	447	-6.10287788731512E-05	dWE(1).Potential/dt < 1E-06 V/s	
46.0097418838366	0.00354614257812499	44.6999998871433	448	0.000442498421762139		
46.1097418835841	0.00353088378906249	44.7999998868909	449	-0.000549310992937535	dWE(1).Potential/dt < 1E-06 V/s	
46.2097418833316	0.0035400390625	44.8999998866384	450	0.000417077186284587		
46.3097418830791	0.00355224609375	44.9999998863859	451	6.61192316329107E-05		
46.4097418828267	0.00355224609375	45.0999998861334	452	-0.000111893721623346	dWE(1).Potential/dt < 1E-06 V/s	
46.5097418825742	0.00355224609375	45.199999885881	453	4.06925792049151E-05		
46.6097418823217	0.0035369873046875	45.2999998856285	454	-0.000279742060229182	dWE(1).Potential/dt < 1E-06 V/s	
46.7097418820692	0.00354919433593751	45.399999885376	455	0.000401818251702935		
46.8097418818168	0.0035369873046875	45.4999998851235	456	-0.000417081086197868	dWE(1).Potential/dt < 1E-06 V/s	
46.9097418815643	0.0035369873046875	45.5999998848711	457	0.000183112715603784		
47.0097418813118	0.0035552978515625	45.6999998846186	458	0.000295004108920693		
47.1097418810593	0.003558349609375	45.7999998843661	459	-0.000157676753588021	dWE(1).Potential/dt < 1E-06 V/s	
47.2097418808069	0.00355224609375	45.8999998841136	460	-8.64678440848365E-05	dWE(1).Potential/dt < 1E-06 V/s	
47.3097418805544	0.0035552978515625	45.9999998838612	461	0.000137332797748968		
47.4097418803019	0.0035430908203125	46.0999998836087	462	-0.000279746716842055	dWE(1).Potential/dt < 1E-06 V/s	
47.5097418800494	0.0035369873046875	46.1999998833562	463	4.06886974815279E-05		
47.609741879797	0.0035400390625	46.2999998831037	464	8.64701723912731E-05		
47.7097418795445	0.003558349609375	46.3999998828513	465	0.000279742060229182		
47.809741879292	0.00354919433593751	46.4999998825988	466	-0.000371297268429771	dWE(1).Potential/dt < 1E-06 V/s	
47.9097418790395	0.0035430908203125	46.5999998823463	467	5.59414293093141E-05		
48.0097418787871	0.00356140136718749	46.6999998820938	468	0.000376382289687172		
48.1097418785346	0.00354614257812499	46.7999998818414	469	-0.000513706530909985	dWE(1).Potential/dt < 1E-06 V/s	
48.2097418782821	0.00353393554687501	46.8999998815889	470	1.52651500684442E-05		
48.3097418780296	0.00354614257812499	46.9999998813364	471	0.000315334880724549		
48.4097418777772	0.0035552978515625	47.0999998810839	472	-1.52472994159325E-05	dWE(1).Potential/dt < 1E-06 V/s	
48.5097418775247	0.0035369873046875	47.1999998808315	473	-0.000401817465899512	dWE(1).Potential/dt < 1E-06 V/s	
48.6097418772722	0.0035675048828125	47.299999880579	474	0.000803633418399841		
48.7097418770197	0.00355224609375	47.3999998803265	475	-0.000696815375704318	dWE(1).Potential/dt < 1E-06 V/s	
48.8097418767672	0.0035430908203125	47.499999880074	476	0.000111897606984712		
48.9097418765148	0.00354614257812499	47.5999998798216	477	0.00011189139331691		
49.0097418762623	0.00354614257812499	47.6999998795691	478	-6.61153535475023E-05	dWE(1).Potential/dt < 1E-06 V/s	
49.1097418760098	0.0035552978515625	47.7999998793166	479	0.00017802303773351		
49.2097418757573	0.00354919433593751	47.8999998790641	480	-0.000218710192712024	dWE(1).Potential/dt < 1E-06 V/s	
49.3097418755049	0.00354614257812499	47.9999998788117	481	4.57667338196188E-05		
49.4097418752524	0.00354919433593751	48.0999998785592	482	7.12213222868741E-05		
49.5097418749999	0.0035552978515625	48.1999998783067	483	6.61099184071645E-05		
49.6097418747474	0.0035430908203125	48.2999998780542	484	-0.000284827867290005	dWE(1).Potential/dt < 1E-06 V/s	
49.709741874495	0.00354614257812499	48.3999998778017	485	0.000218703979044221		
49.8097418742425	0.0035430908203125	48.4999998775493	486	-0.000132235363707878	dWE(1).Potential/dt < 1E-06 V/s	
49.90974187399	0.00356140136718749	48.5999998772968	487	0.000381461111828685		
50.0097418737375	0.00354919433593751	48.6999998770443	488	-0.000447579543106258	dWE(1).Potential/dt < 1E-06 V/s	
50.1097418734851	0.0035552978515625	48.7999998767918	489	0.000315337209030986		
50.2097418732326	0.0035430908203125	48.8999998765394	490	-0.000335690478095785	dWE(1).Potential/dt < 1E-06 V/s	
50.3097418729801	0.0035552978515625	48.9999998762869	491	0.000386553118005395		
50.4097418727276	0.00354614257812499	49.0999998760344	492	-0.000350953312590718	dWE(1).Potential/dt < 1E-06 V/s	
50.5097418724752	0.00354919433593751	49.1999998757819	493	0.000203460556804203		
50.6097418722227	0.00354919433593751	49.2999998755295	494	-6.61300946376286E-05	dWE(1).Potential/dt < 1E-06 V/s	
50.7097418719702	0.00355224609375	49.399999875277	495	6.61192316329107E-05		
50.8097418717177	0.0035552978515625	49.4999998750245	496	2.03509462153306E-05		
50.9097418714653	0.0035430908203125	49.599999874772	497	-0.000249229633482173	dWE(1).Potential/dt < 1E-06 V/s	
51.0097418712128	0.00355224609375	49.6999998745196	498	0.000320433086017147		
51.1097418709603	0.00355224609375	49.7999998742671	499	-0.000147496626595967	dWE(1).Potential/dt < 1E-06 V/s	
51.2097418707078	0.00355224609375	49.8999998740146	500	3.05202083836775E-05		
51.3097418704554	0.00356140136718749	49.9999998737621	501	0.000167845239047892		
51.4097418702029	0.00354919433593751	50.0999998735097	502	-0.000330598471919075	dWE(1).Potential/dt < 1E-06 V/s	
51.5097418699504	0.00354919433593751	50.1999998732572	503	0.000172924061189406		
51.6097418696979	0.00356140136718749	50.2999998730047	504	0.000183099531568587		
51.7097418694455	0.0035552978515625	50.3999998727522	505	-0.000254302227403969	dWE(1).Potential/dt < 1E-06 V/s	
51.809741869193	0.0035369873046875	50.4999998724998	506	-0.000223798313527368	dWE(1).Potential/dt < 1E-06 V/s	
51.9097418689405	0.003558349609375	50.5999998722473	507	0.000584921683184803		
52.009741868688	0.00354614257812499	50.6999998719948	508	-0.000534063670784235	dWE(1).Potential/dt < 1E-06 V/s	
52.1097418684355	0.00354614257812499	50.7999998717423	509	0.000213629042264074		
52.2097418681831	0.00354614257812499	50.8999998714899	510	-4.06886974815279E-05	dWE(1).Potential/dt < 1E-06 V/s	
52.3097418679306	0.00356140136718749	50.9999998712374	511	0.000279745960142463		
52.4097418676781	0.0035552978515625	51.0999998709849	512	-0.000289912888547406	dWE(1).Potential/dt < 1E-06 V/s	
52.5097418674256	0.0035400390625	51.1999998707324	513	-0.000157677524839528	dWE(1).Potential/dt < 1E-06 V/s	
52.6097418671732	0.00354614257812499	51.29999987048	514	0.000269569689407945		
52.7097418669207	0.0035400390625	51.3999998702275	515	-0.000233960599871352	dWE(1).Potential/dt < 1E-06 V/s	
52.8097418666682	0.00354614257812499	51.499999869975	516	0.000203444258659147		
52.9097418664157	0.0035430908203125	51.5999998697225	517	-0.000147495069541037	dWE(1).Potential/dt < 1E-06 V/s	
53.0097418661633	0.00354614257812499	51.69999986947	518	0.000111889065010473		
53.1097418659108	0.00354614257812499	51.7999998692176	519	-4.57698370155413E-05	dWE(1).Potential/dt < 1E-06 V/s	
53.2097418656583	0.00356445312500001	51.8999998689651	520	0.000345872162142769		
53.3097418654058	0.00354919433593751	51.9999998687126	521	-0.000493375759106129	dWE(1).Potential/dt < 1E-06 V/s	
53.4097418651534	0.003558349609375	52.0999998684601	522	0.000406896288041025		
53.5097418649009	0.0035552978515625	52.1999998682077	523	-0.00021362207189668	dWE(1).Potential/dt < 1E-06 V/s	
53.6097418646484	0.0035552978515625	52.2999998679552	524	6.61223311908543E-05		
53.7097418643959	0.0035552978515625	52.3999998677027	525	-1.01723680927535E-05	dWE(1).Potential/dt < 1E-06 V/s	
53.8097418641435	0.00356140136718749	52.4999998674502	526	0.000111895278678276		
53.909741863891	0.00355224609375	52.5999998671978	527	-0.000239045606576838	dWE(1).Potential/dt < 1E-06 V/s	
54.0097418636385	0.00355224609375	52.6999998669453	528	0.000127156541566364		
54.109741863386	0.0035400390625	52.7999998666928	529	-0.000254311540629715	dWE(1).Potential/dt < 1E-06 V/s	
54.2097418631336	0.00354614257812499	52.8999998664403	530	0.000254309212323278		
54.3097418628811	0.00354614257812499	52.9999998661879	531	-0.000111892950371839	dWE(1).Potential/dt < 1E-06 V/s	
54.4097418626286	0.00355224609375	53.0999998659354	532	0.000132247776491567		
54.5097418623761	0.0035430908203125	53.1999998656829	533	-0.000239056476857513	dWE(1).Potential/dt < 1E-06 V/s	
54.6097418621237	0.00354614257812499	53.2999998654304	534	0.000183099531568587		
54.7097418618712	0.00354614257812499	53.399999865178	535	-6.61153535475023E-05	dWE(1).Potential/dt < 1E-06 V/s	
54.8097418616187	0.00356140136718749	53.4999998649255	536	0.000289918330963701		
54.9097418613662	0.003558349609375	53.599999864673	537	-0.000233965256484225	dWE(1).Potential/dt < 1E-06 V/s	
55.0097418611138	0.00355224609375	53.6999998644205	538	-2.54359656537417E-05	dWE(1).Potential/dt < 1E-06 V/s	
55.1097418608613	0.003558349609375	53.7999998641681	539	0.000172935688169673		
55.2097418606088	0.00356140136718749	53.8999998639156	540	-3.56098862539511E-05	dWE(1).Potential/dt < 1E-06 V/s	
55.3097418603563	0.003558349609375	53.9999998636631	541	-7.12003675289452E-05	dWE(1).Potential/dt < 1E-06 V/s	
55.4097418601039	0.0035552978515625	54.0999998634106	542	-1.01785772130825E-05	dWE(1).Potential/dt < 1E-06 V/s	
55.5097418598514	0.00355224609375	54.1999998631582	543	-3.05147768813185E-05	dWE(1).Potential/dt < 1E-06 V/s	
55.6097418595989	0.0035400390625	54.2999998629057	544	-0.000198361565708183	dWE(1).Potential/dt < 1E-06 V/s	
55.7097418593464	0.00356140136718749	54.3999998626532	545	0.000523881230037659		
55.8097418590939	0.0035400390625	54.4999998624007	546	-0.000681551813613623	dWE(1).Potential/dt < 1E-06 V/s	
55.9097418588415	0.00354614257812499	54.5999998621483	547	0.000432326050940901		
56.009741858589	0.00356140136718749	54.6999998618958	548	0.000137334340251982		
56.1097418583365	0.0035430908203125	54.7999998616433	549	-0.0004933649324812	dWE(1).Potential/dt < 1E-06 V/s	
56.209741858084	0.0035430908203125	54.8999998613908	550	0.000264478469034657		
56.3097418578316	0.00355224609375	54.9999998611383	551	0.000106811807199847		
56.4097418575791	0.00355224609375	55.0999998608859	552	-0.000106806379335467	dWE(1).Potential/dt < 1E-06 V/s	
56.5097418573266	0.00354614257812499	55.1999998606334	553	-8.13812730484642E-05	dWE(1).Potential/dt < 1E-06 V/s	
56.6097418570741	0.00354919433593751	55.2999998603809	554	0.000127165083540604		
56.7097418568217	0.0035430908203125	55.3999998601284	555	-0.000167859208886512	dWE(1).Potential/dt < 1E-06 V/s	
56.8097418565692	0.00355224609375	55.499999859876	556	0.000249229633482173		
56.9097418563167	0.0035369873046875	55.5999998596235	557	-0.000406896288041025	dWE(1).Potential/dt < 1E-06 V/s	
57.0097418560642	0.00357666015624999	55.699999859371	558	0.00093587109586224		
57.1097418558118	0.00355224609375	55.7999998591185	559	-0.000961296202149242	dWE(1).Potential/dt < 1E-06 V/s	
57.2097418555593	0.0035369873046875	55.8999998588661	560	0.000137328912387602		
57.3097418553068	0.0035552978515625	55.9999998586136	561	0.000432333792559803		
57.4097418550543	0.00354919433593751	56.0999998583611	562	-0.000376382289687172	dWE(1).Potential/dt < 1E-06 V/s	
57.5097418548019	0.0035430908203125	56.1999998581086	563	2.03361996682361E-05		
57.6097418545494	0.00356140136718749	56.2999998578562	564	0.000386554660508409		
57.7097418542969	0.0035675048828125	56.3999998576037	565	-0.000122060657304246	dWE(1).Potential/dt < 1E-06 V/s	
57.8097418540444	0.0035675048828125	56.4999998573512	566	-1.01723680927535E-05	dWE(1).Potential/dt < 1E-06 V/s	
57.909741853792	0.00355224609375	56.5999998570987	567	-0.000259396561887115	dWE(1).Potential/dt < 1E-06 V/s	
58.0097418535395	0.0035400390625	56.6999998568463	568	-4.57752685179003E-05	dWE(1).Potential/dt < 1E-06 V/s	
58.109741853287	0.0035400390625	56.7999998565938	569	9.15513155632652E-05		
58.2097418530345	0.0035552978515625	56.8999998563413	570	0.000239054148551077		
58.3097418527821	0.0035552978515625	56.9999998560888	571	-0.000178019166924059	dWE(1).Potential/dt < 1E-06 V/s	
58.4097418525296	0.0035430908203125	57.0999998558364	572	-0.000172934145666659	dWE(1).Potential/dt < 1E-06 V/s	
58.5097418522771	0.00356445312500001	57.1999998555839	573	0.000534057500772178		
58.6097418520246	0.0035400390625	57.2999998553314	574	-0.000737514172215015	dWE(1).Potential/dt < 1E-06 V/s	
58.7097418517722	0.003558349609375	57.3999998550789	575	0.000691734254360199		
58.8097418515197	0.0035430908203125	57.4999998548265	576	-0.000574751640670002	dWE(1).Potential/dt < 1E-06 V/s	
58.9097418512672	0.0035430908203125	57.599999854574	577	0.00023905182024464		
59.0097418510147	0.00354919433593751	57.6999998543215	578	6.10365386819467E-05		
59.1097418507622	0.0035430908203125	57.799999854069	579	-0.000183112715603784	dWE(1).Potential/dt < 1E-06 V/s	
59.2097418505098	0.00354919433593751	57.8999998538166	580	0.000203454357688315		
59.3097418502573	0.0035552978515625	57.9999998535641	581	2.03385279746726E-05		
59.4097418500048	0.0035369873046875	58.0999998533116	582	-0.000386550789698958	dWE(1).Potential/dt < 1E-06 V/s	
59.5097418497523	0.00354614257812499	58.1999998530591	583	0.000401814380893484		
59.6097418494999	0.00354614257812499	58.2999998528067	584	-0.000167842910741456	dWE(1).Potential/dt < 1E-06 V/s	
59.7097418492474	0.00354919433593751	58.3999998525542	585	8.64725006977096E-05		
59.8097418489949	0.00353393554687501	58.4999998523017	586	-0.0003153566212859	dWE(1).Potential/dt < 1E-06 V/s	
59.9097418487424	0.00356140136718749	58.5999998520492	587	0.000691725697834045		
60.00974184849	0.0035430908203125	58.6999998517967	588	-0.000706980761606246	dWE(1).Potential/dt < 1E-06 V/s	
60.1097418482375	0.0035430908203125	58.7999998515443	589	0.000305167952319607		
60.209741847985	0.00354919433593751	58.8999998512918	590	5.08641714986879E-05		
60.3097418477325	0.003558349609375	58.9999998510393	591	9.66316802077927E-05		
60.4097418474801	0.00355224609375	59.0999998507868	592	-0.000198361565708183	dWE(1).Potential/dt < 1E-06 V/s	
60.5097418472276	0.00354919433593751	59.1999998505344	593	4.57822534372099E-05		
60.6097418469751	0.00354614257812499	59.2999998502819	594	-4.07011139031965E-05	dWE(1).Potential/dt < 1E-06 V/s	
60.7097418467226	0.00353393554687501	59.3999998500294	595	-0.000198350709979422	dWE(1).Potential/dt < 1E-06 V/s	
60.8097418464702	0.00354614257812499	59.4999998497769	596	0.0003560243640095		
60.9097418462177	0.0035552978515625	59.5999998495245	597	-1.52472994159325E-05	dWE(1).Potential/dt < 1E-06 V/s	
61.0097418459652	0.0035430908203125	59.699999849272	598	-0.000289922201773152	dWE(1).Potential/dt < 1E-06 V/s	
61.1097418457127	0.00353088378906249	59.7999998490195	599	-5.08672746946104E-05	dWE(1).Potential/dt < 1E-06 V/s	
61.2097418454603	0.00354614257812499	59.899999848767	600	0.000381475838366896		
