Time (s)	WE(1).Potential (V)	Corrected time (s)	Index	dWE(1).Potential/dt (V/s)	OCP value (V)
1.53974899611251	0.018145751953125	0	1	0	0.0175774667777267
1.63974899586003	0.0181365966796875	0.0999999997475243	2	-9.15489872568287E-05	
1.73974899560756	0.018145751953125	0.199999999495049	3	0.000183097974513657	
1.83974899535508	0.0181427001953125	0.299999999242573	4	-0.000193280429812148	
1.9397489951026	0.0181396484375	0.399999998990097	5	1.01886662378092E-05	
2.03974899485013	0.0181365966796875	0.499999998737621	6	-3.05349567497615E-05	
2.13974899459765	0.0181396484375	0.599999998485146	7	8.14348240965046E-05	
2.23974899434518	0.0181396484375	0.69999999823267	8	-4.57838068541605E-05	
2.3397489940927	0.01812744140625	0.799999997980194	9	-0.000213626713957638	
2.43974899384023	0.0181243896484375	0.899999997727718	10	8.64887988427654E-05	
2.53974899358775	0.01812744140625	0.999999997475243	11	5.08502016600687E-05	
2.63974899333527	0.01812744140625	1.09999999722277	12	-4.57713904324919E-05	
2.7397489930828	0.0181243896484375	1.19999999697029	13	-4.57589703728445E-05	
2.83974899283032	0.018121337890625	1.29999999671782	14	-2.03649160539499E-05	
2.93974899257785	0.0181243896484375	1.39999999646534	15	8.14348240965046E-05	
3.03974899232537	0.018115234375	1.49999999621286	16	-0.000213670180528425	
3.1397489920729	0.0181121826171875	1.59999999596039	17	6.10512870480306E-05	
3.23974899182042	0.018115234375	1.69999999570791	18	6.10078241152223E-05	
3.33974899156794	0.01810302734375	1.79999999545544	19	-0.000269549520453438	
3.43974899131547	0.0181182861328125	1.89999999520296	20	0.000432307424489409	
3.53974899106299	0.018096923828125	1.99999999495049	21	-0.000610363844316453	
3.63974899081052	0.0180999755859375	2.09999999469801	22	0.000356032105628401	
3.73974899055804	0.0180999755859375	2.19999999444553	23	-0.000106822670204565	
3.83974899030557	0.0180938720703125	2.29999999419306	24	-0.000101700403320137	
3.93974899005309	0.0180999755859375	2.39999999394058	25	0.000183073134394363	
4.03974898980061	0.0180999755859375	2.49999999368811	26	-9.15551936486736E-05	
4.13974898954814	0.0180908203125	2.59999999343563	27	-0.000147509039379656	
4.23974898929566	0.0180877685546875	2.69999999318316	28	5.08998709847219E-05	
4.33974898904319	0.01807861328125	2.79999999293068	29	-0.00016278272960335	
4.43974898879071	0.0180816650390625	2.8999999926782	30	0.000152594060637057	
4.53974898853824	0.0180816650390625	2.99999999242573	31	-6.61176818539388E-05	
4.63974898828576	0.0180877685546875	3.09999999217325	32	0.000122077733976766	
4.73974898803328	0.0180755615234375	3.19999999192078	33	-0.000295042933430523	
4.83974898778081	0.01807861328125	3.2999999916683	34	0.000218773828237318	
4.93974898752833	0.0180755615234375	3.39999999141583	35	-0.00013227881572675	
5.03974898727586	0.0180755615234375	3.49999999116335	36	4.58024333056528E-05	
5.13974898702338	0.0180694580078125	3.59999999091087	37	-0.000122077733976766	
5.23974898677091	0.018072509765625	3.6999999906584	38	0.000127162755234167	
5.33974898651843	0.018072509765625	3.79999999040592	39	-5.5972472182475E-05	
5.43974898626595	0.0180633544921875	3.89999999015345	40	-0.000157666669110768	
5.53974898601348	0.0180755615234375	3.99999998990097	41	0.000330600800225511	
5.639748985761	0.018060302734375	4.0999999896485	42	-0.000452653708634898	
5.73974898550853	0.018060302734375	4.19999998939602	43	0.000218711735215038	
5.83974898525605	0.0180572509765625	4.29999998914354	44	-0.000106785424577538	
5.93974898500358	0.01805419921875	4.39999998889107	45	-2.04083771677688E-05	
6.0397489847511	0.0180572509765625	4.49999998863859	46	8.14161976450123E-05	
6.13974898449862	0.01805419921875	4.59999998838612	47	-0.000101781115517952	
6.23974898424615	0.0180572509765625	4.69999998813364	48	0.000101762489066459	
6.33974898399367	0.0180511474609375	4.79999998788117	49	-0.000157710121129639	
6.4397489837412	0.01805419921875	4.89999998762869	50	0.000137326584081165	
6.53974898348872	0.0180572509765625	4.99999998737621	51	1.86264479395959E-08	
6.63974898323625	0.0180389404296875	5.09999998712374	52	-0.000361179234459996	
6.73974898298377	0.0180450439453125	5.19999998687126	53	0.000335710676154122	
6.83974898273129	0.0180419921875	5.29999998661879	54	-0.000188158155651763	
6.93974898247882	0.0180389404296875	5.39999998636631	55	-6.20881550617014E-08	
7.03974898222634	0.0180328369140625	5.49999998611383	56	-8.64205067045987E-05	
7.13974898197387	0.0180389404296875	5.59999998586136	57	0.000172896892763674	
7.23974898172139	0.0180419921875	5.69999998560888	58	-3.55765150743537E-05	
7.33974898146892	0.0180328369140625	5.79999998535641	59	-0.000183122814632952	
7.43974898121644	0.018035888671875	5.89999998510393	60	0.000172940344782546	
7.53974898096396	0.01802978515625	5.99999998485146	61	-0.000178025366039947	
7.63974898071149	0.0180419921875	6.09999998459898	62	0.000305212946841493	
7.73974898045901	0.01802978515625	6.1999999843465	63	-0.000386610539862886	
7.83974898020654	0.0180389404296875	6.29999998409403	64	0.000350978138158098	
7.93974897995406	0.0180267333984375	6.39999998384155	65	-0.00037129339762032	
8.03974897970159	0.01802978515625	6.49999998358908	66	0.000228838325710967	
8.13974897944911	0.018017578125	6.5999999833366	67	-0.000300022395094857	
8.23974897919663	0.0180328369140625	6.69999998308413	68	0.000432326050940901	
8.33974897894416	0.018023681640625	6.79999998283165	69	-0.000386579486075789	
8.43974897869168	0.01802978515625	6.89999998257917	70	0.000269574346020818	
8.53974897843921	0.0180145263671875	6.9999999823267	71	-0.000381457211915404	
8.63974897818673	0.018011474609375	7.09999998207422	72	0.000142442644573748	
8.73974897793426	0.0180267333984375	7.19999998182175	73	0.000264452100964263	
8.83974897768178	0.0180084228515625	7.29999998156927	74	-0.000523918482940644	
8.9397489774293	0.01802978515625	7.3999999813168	75	0.000656141433864832	
9.03974897717683	0.01800537109375	7.49999998106432	76	-0.000757829402573407	
9.13974897692435	0.0180084228515625	7.59999998081184	77	0.000411954912124202	
9.23974897667188	0.0180023193359375	7.69999998055937	78	-0.000228850738494657	
9.3397489764194	0.01800537109375	7.79999998030689	79	0.000137314171297476	
9.43974897616692	0.01800537109375	7.89999998005442	80	-5.59414293093141E-05	
9.53974897591445	0.017999267578125	7.99999997980194	81	-0.000101737656223122	
9.63974897566197	0.0179962158203125	8.09999997954947	82	1.52985212480417E-05	
9.7397489754095	0.017999267578125	8.19999997929699	83	7.11530301487073E-05	
9.83974897515702	0.0179962158203125	8.29999997904451	84	-0.000101669356808998	
9.93974897490455	0.017987060546875	8.39999997879204	85	-0.000122096360428259	
10.0397489746521	0.017999267578125	8.49999997853956	86	0.00032043075771071	
10.1397489743996	0.0179901123046875	8.59999997828709	87	-0.000340746017172933	
10.2397489741471	0.017987060546875	8.69999997803461	88	9.15551936486736E-05	
10.3397489738946	0.0179901123046875	8.79999997778214	89	6.10264505667146E-05	
10.4397489736422	0.0179901123046875	8.89999997752966	90	-4.57713904324919E-05	
10.5397489733897	0.0179840087890625	8.99999997727718	91	-0.000101737656223122	
10.6397489731372	0.0179901123046875	9.09999997702471	92	0.000183135227416642	
10.7397489728847	0.01798095703125	9.19999997677223	93	-0.000259404332609847	
10.8397489726323	0.017974853515625	9.29999997651976	94	1.52302245624014E-05	
10.9397489723798	0.0179840087890625	9.39999997626728	95	0.000208541707252152	
11.0397489721273	0.01798095703125	9.49999997601481	96	-0.000183066935278475	
11.1397489718748	0.017974853515625	9.59999997576233	97	-4.58210597571451E-05	
11.2397489716224	0.0179779052734375	9.69999997550985	98	0.000116980299935676	
11.3397489713699	0.01796875	9.79999997525738	99	-0.000223796756472439	
11.4397489711174	0.01796875	9.8999999750049	100	0.000116998919111211	
11.5397489708649	0.017962646484375	9.99999997475243	101	-0.000142417819006369	
11.6397489706125	0.0179656982421875	10.0999999745	102	0.000127162755234167	
11.73974897036	0.01796875	10.1999999742475	103	-4.34617106748192E-08	
11.8397489701075	0.017962646484375	10.299999973995	104	-0.000137301743961871	
11.939748969855	0.01796875	10.3999999737425	105	0.000193261803360656	
12.0397489696026	0.0179718017578125	10.49999997349	106	-3.55578886228614E-05	
12.1397489693501	0.0179595947265625	10.5999999732376	107	-0.000239076660363935	
12.2397489690976	0.0179656982421875	10.6999999729851	108	0.000264501752099022	
12.3397489688451	0.01796875	10.7999999727326	109	-5.59910986339673E-05	
12.4397489685927	0.0179656982421875	10.8999999724801	110	-7.11530301487073E-05	
12.5397489683402	0.01795654296875	10.9999999722277	111	-0.000122096360428259	
12.6397489680877	0.0179595947265625	11.0999999719752	112	0.000152594060637057	
12.7397489678352	0.017962646484375	11.1999999717227	113	-1.01886662378092E-05	
12.8397489675828	0.0179534912109375	11.2999999714702	114	-0.000193280429812148	
12.9397489673303	0.01795654296875	11.3999999712178	115	0.000172977597685531	
13.0397489670778	0.0179595947265625	11.4999999709653	116	-1.01948753581382E-05	
13.1397489668253	0.0179595947265625	11.5999999707128	117	-2.54251008300344E-05	
13.2397489665728	0.017950439453125	11.6999999704603	118	-0.000157666669110768	
13.3397489663204	0.0179534912109375	11.7999999702079	119	0.000162720636581071	
13.4397489660679	0.017938232421875	11.8999999699554	120	-0.000345831038430333	
13.5397489658154	0.0179473876953125	11.9999999697029	121	0.000356032105628401	
13.6397489655629	0.017950439453125	12.0999999694504	122	-0.00010171902977163	
13.7397489653105	0.017950439453125	12.199999969198	123	-5.10985546497977E-06	
13.839748965058	0.0179443359375	12.2999999689455	124	-0.000101737656223122	
13.9397489648055	0.0179473876953125	12.399999968693	125	0.000127150342450477	
14.039748964553	0.0179351806640625	12.4999999684405	126	-0.000279725762084126	
14.1397489643006	0.0179351806640625	12.5999999681881	127	0.000152563021401875	
14.2397489640481	0.017938232421875	12.6999999679356	128	1.52364336827304E-05	
14.3397489637956	0.0179443359375	12.7999999676831	129	7.63373900554143E-05	
14.4397489635431	0.0179351806640625	12.8999999674306	130	-0.000228887991397642	
14.5397489632907	0.017938232421875	12.9999999671782	131	0.000183066935278475	
14.6397489630382	0.0179290771484375	13.0999999669257	132	-0.000233923346968368	
14.7397489627857	0.0179290771484375	13.1999999666732	133	0.000116967879876029	
14.8397489625332	0.017938232421875	13.2999999664207	134	0.000137320370413363	
14.9397489622808	0.017926025390625	13.3999999661683	135	-0.000330557348206639	
15.0397489620283	0.0179290771484375	13.4999999659158	136	0.000228856952162459	
15.1397489617758	0.01793212890625	13.5999999656633	137	-2.03587060241262E-05	
15.2397489615233	0.01793212890625	13.6999999654108	138	-2.54437272815267E-05	
15.3397489612709	0.017926025390625	13.7999999651583	139	-0.000101700403320137	
15.4397489610184	0.0179229736328125	13.8999999649059	140	1.52364336827304E-05	
15.5397489607659	0.017919921875	13.9999999646534	141	-4.06429062422831E-05	
15.6397489605134	0.017919921875	14.0999999644009	142	2.5394056137884E-05	
15.739748960261	0.0179229736328125	14.1999999641484	143	4.57527639809996E-05	
15.8397489600085	0.0179290771484375	14.299999963896	144	7.63373900554143E-05	
15.939748959756	0.017926025390625	14.3999999636435	145	-0.000116980299935676	
16.0397489595035	0.017926025390625	14.499999963391	146	5.59600557608064E-05	
16.1397489592511	0.0179046630859375	14.5999999631385	147	-0.000401809724280611	
16.2397489589986	0.0179168701171875	14.6999999628861	148	0.000472975167213008	
16.3397489587461	0.0179107666015625	14.7999999626336	149	-0.000325478526065126	
16.4397489584936	0.017913818359375	14.8999999623811	150	0.000167830497957766	
16.5397489582411	0.01790771484375	14.9999999621286	151	-0.000167849124409258	
16.6397489579887	0.017901611328125	15.0999999618762	152	-3.05101202684455E-05	
16.7397489577362	0.01790771484375	15.1999999616237	153	0.000162745476700366	
16.8397489574837	0.0179046630859375	15.2999999613712	154	-0.000147465587360784	
16.9397489572312	0.017901611328125	15.3999999611187	155	-6.20881550617014E-08	
17.0397489569788	0.0179046630859375	15.4999999608663	156	8.14161976450123E-05	
17.1397489567263	0.01790771484375	15.5999999606138	157	1.0126578672498E-05	
17.2397489564738	0.0178955078125	15.6999999603613	158	-0.000249159784289077	
17.3397489562213	0.01790771484375	15.7999999601088	159	0.000376347365090624	
17.4397489559689	0.017901611328125	15.8999999598564	160	-0.000294987054076046	
17.5397489557164	0.017901611328125	15.9999999596039	161	0.000111870438558981	
17.6397489554639	0.0178863525390625	16.0999999593514	162	-0.000300103100016713	
17.7397489552114	0.0178955078125	16.1999999590989	163	0.000345893116900697	
17.839748954959	0.0178955078125	16.2999999588465	164	-0.000157666669110768	
17.9397489547065	0.0178955078125	16.399999958594	165	3.05349567497615E-05	
18.039748954454	0.0178863525390625	16.4999999583415	166	-0.000167873964528553	
18.1397489542015	0.0178863525390625	16.599999958089	167	0.00010680405102903	
18.2397489539491	0.017889404296875	16.6999999578366	168	2.54437272815267E-05	
18.3397489536966	0.0178863525390625	16.7999999575841	169	-9.16048666113056E-05	
18.4397489534441	0.017889404296875	16.8999999573316	170	0.000101762489066459	
18.5397489531916	0.01788330078125	16.9999999570791	171	-0.000157710121129639	
18.6397489529392	0.0178863525390625	17.0999999568267	172	0.000137326584081165	
18.7397489526867	0.0178924560546875	17.1999999565742	173	5.59476393391378E-05	
18.8397489524342	0.0178863525390625	17.2999999563217	174	-0.000172927931998856	
18.9397489521817	0.01788330078125	17.3999999560692	175	3.56013479176909E-05	
19.0397489519293	0.01788330078125	17.4999999558167	176	1.52550601342227E-05	
19.1397489516768	0.0178802490234375	17.5999999555643	177	-6.60990554024465E-05	
19.2397489514243	0.0178741455078125	17.6999999553118	178	-7.62939307605848E-05	
19.3397489511718	0.0178741455078125	17.7999999550593	179	6.10202405368909E-05	
19.4397489509194	0.0178802490234375	17.8999999548068	180	9.15551936486736E-05	
19.5397489506669	0.017877197265625	17.9999999545544	181	-0.000127162755234167	
19.6397489504144	0.0178680419921875	18.0999999543019	182	-0.000111864232167136	
19.7397489501619	0.01788330078125	18.1999999540494	183	0.000376365991542116	
19.8397489499094	0.01787109375	18.2999999537969	184	-0.000432350876508281	
19.939748949657	0.0178680419921875	18.3999999535445	185	0.000137338996864855	
20.0397489494045	0.017877197265625	18.499999953292	186	0.000162745476700366	
20.139748949152	0.0178741455078125	18.5999999530395	187	-0.000172890679095872	
20.2397489488995	0.01785888671875	18.699999952787	188	-0.000213657767744735	
20.3397489486471	0.0178619384765625	18.7999999525346	189	0.000223771930905059	
20.4397489483946	0.0178619384765625	18.8999999522821	190	-8.64329267642461E-05	
20.5397489481421	0.01785888671875	18.9999999520296	191	-4.57527639809996E-05	
20.6397489478896	0.0178619384765625	19.0999999517771	192	9.14993142941967E-05	
20.7397489476372	0.0178619384765625	19.1999999515247	193	-4.57403439213522E-05	
20.8397489473847	0.01787109375	19.2999999512722	194	0.000178012953256257	
20.9397489471322	0.0178466796875	19.3999999510197	195	-0.000554416212253273	
21.0397489468797	0.0178741455078125	19.4999999507672	196	0.000818924163468182	
21.1397489466273	0.0178558349609375	19.5999999505148	197	-0.000737570051569492	
21.2397489463748	0.01785888671875	19.6999999502623	198	0.000361160608008504	
21.3397489461223	0.01785888671875	19.7999999500098	199	-9.66650477494113E-05	
21.4397489458698	0.0178466796875	19.8999999497573	200	-0.00021364534040913	
21.5397489456174	0.017852783203125	19.9999999495049	201	0.000254356564255431	
21.6397489453649	0.017852783203125	20.0999999492524	202	-0.000111913905129768	
21.7397489451124	0.017852783203125	20.1999999489999	203	2.03462896024575E-05	
21.8397489448599	0.0178466796875	20.2999999487474	204	-0.000111907691461965	
21.9397489446075	0.017852783203125	20.399999948495	205	0.000183135227416642	
22.039748944355	0.0178497314453125	20.4999999482425	206	-0.000147496626595967	
22.1397489441025	0.017852783203125	20.59999994799	207	0.000111889065010473	
22.23974894385	0.0178375244140625	20.6999999477375	208	-0.000325515778968111	
22.3397489435976	0.017852783203125	20.799999947485	209	0.000467933597974479	
22.4397489433451	0.0178466796875	20.8999999472326	210	-0.000340789469191805	
22.5397489430926	0.0178375244140625	20.9999999469801	211	-4.57465539511759E-05	
22.6397489428401	0.017840576171875	21.0999999467276	212	0.000142380566103384	
22.7397489425877	0.017840576171875	21.1999999464751	213	-6.61300946376286E-05	
22.8397489423352	0.017840576171875	21.2999999462227	214	1.01576224551536E-05	
22.9397489420827	0.01783447265625	21.3999999459702	215	-0.000111870438558981	
23.0397489418302	0.0178314208984375	21.4999999457177	216	1.52364336827304E-05	
23.1397489415778	0.017840576171875	21.5999999454652	217	0.000183122814632952	
23.2397489413253	0.017828369140625	21.6999999452128	218	-0.00034077707096003	
23.3397489410728	0.01783447265625	21.7999999449603	219	0.000284817011561245	
23.4397489408203	0.01783447265625	21.8999999447078	220	-0.000111870438558981	
23.5397489405678	0.01783447265625	21.9999999444553	221	2.03587060241262E-05	
23.6397489403154	0.017822265625	22.0999999442029	222	-0.000223802970140241	
23.7397489400629	0.0178314208984375	22.1999999439504	223	0.000310254516080022	
23.8397489398104	0.017828369140625	22.2999999436979	224	-0.000203413219423965	
23.9397489395579	0.017828369140625	22.3999999434454	225	6.60866353427991E-05	
24.0397489393055	0.0178192138671875	22.499999943193	226	-0.000178012953256257	
24.139748939053	0.0178253173828125	22.5999999429405	227	0.000218693108763546	
24.2397489388005	0.017822265625	22.699999942688	228	-0.000157660455442965	
24.339748938548	0.0178192138671875	22.7999999424355	229	1.24176313676116E-08	
24.4397489382956	0.017822265625	22.8999999421831	230	8.13727383501828E-05	
24.5397489380431	0.0178192138671875	22.9999999419306	231	-0.000101700403320137	
24.6397489377906	0.017822265625	23.0999999416781	232	0.000101712816103827	
24.7397489375381	0.0178253173828125	23.1999999414256	233	1.01576224551536E-05	
24.8397489372857	0.017816162109375	23.2999999411732	234	-0.000193280429812148	
24.9397489370332	0.017822265625	23.3999999409207	235	0.000228906617849134	
25.0397489367807	0.0178131103515625	23.4999999406682	236	-0.000269574346020818	
25.1397489365282	0.01781005859375	23.5999999404157	237	7.11592365405522E-05	
25.2397489362758	0.01781005859375	23.6999999401633	238	5.09122901348746E-06	
25.3397489360233	0.017803955078125	23.7999999399108	239	-0.000122046687465627	
25.4397489357708	0.01781005859375	23.8999999396583	240	0.000183073134394363	
25.5397489355183	0.0178070068359375	23.9999999394058	241	-0.000147484213812277	
25.6397489352659	0.017803955078125	24.0999999391533	242	1.24176313676116E-08	
25.7397489350134	0.0178131103515625	24.1999999389009	243	0.000193280429812148	
25.8397489347609	0.0178070068359375	24.2999999386484	244	-0.000228906617849134	
25.9397489345084	0.0178009033203125	24.3999999383959	245	-1.01700397863169E-05	
26.039748934256	0.0178009033203125	24.4999999381434	246	5.08812445332296E-05	
26.1397489340035	0.0177978515625	24.599999937891	247	-7.62690906412899E-05	
26.239748933751	0.0178009033203125	24.6999999376385	248	9.14993142941967E-05	
26.3397489334985	0.0178009033203125	24.799999937386	249	-4.57403439213522E-05	
26.4397489332461	0.017803955078125	24.8999999371335	250	6.61549274809659E-05	
26.5397489329936	0.017791748046875	24.9999999368811	251	-0.00025942295906134	
26.6397489327411	0.017803955078125	25.0999999366286	252	0.000376409443560988	
26.7397489324886	0.0177947998046875	25.1999999363761	253	-0.000350984337273985	
26.8397489322361	0.01778564453125	25.2999999361236	254	-2.03400795726338E-05	
26.9397489319837	0.0177978515625	25.3999999358712	255	0.000300121726468205	
27.0397489317312	0.0177886962890625	25.4999999356187	256	-0.00034080189652741	
27.1397489314787	0.0177886962890625	25.5999999353662	257	0.000147527665831149	
27.2397489312262	0.0177825927734375	25.6999999351137	258	-0.000142411605338566	
27.3397489309738	0.01778564453125	25.7999999348613	259	0.00012711928866338	
27.4397489307213	0.01778564453125	25.8999999346088	260	-5.59165928279981E-05	
27.5397489304688	0.0177886962890625	25.9999999343563	261	6.61549274809659E-05	
27.6397489302163	0.017791748046875	26.0999999341038	262	2.03214531211415E-05	
27.7397489299639	0.0177886962890625	26.1999999338514	263	-8.13541118986905E-05	
27.8397489297114	0.0177886962890625	26.2999999335989	264	4.57838068541605E-05	
27.9397489294589	0.0177825927734375	26.3999999333464	265	-0.000122065313917119	
28.0397489292064	0.0177764892578125	26.4999999330939	266	-4.07174120482523E-05	
28.139748928954	0.017779541015625	26.5999999328415	267	0.00010680405102903	
28.2397489287015	0.017779541015625	26.699999932589	268	-5.59600557608064E-05	
28.339748928449	0.017779541015625	26.7999999323365	269	1.01576224551536E-05	
28.4397489281965	0.0177734375	26.899999932084	270	-0.000111870438558981	
28.5397489279441	0.017767333984375	26.9999999318316	271	-4.06925792049151E-05	
28.6397489276916	0.0177703857421875	27.0999999315791	272	0.000106779210909735	
28.7397489274391	0.0177703857421875	27.1999999313266	273	-5.59165928279981E-05	
28.8397489271866	0.0177764892578125	27.2999999310741	274	0.000122083947644569	
28.9397489269342	0.0177703857421875	27.3999999308217	275	-0.00018312901374884	
29.0397489266817	0.0177703857421875	27.4999999305692	276	9.15738201001659E-05	
29.1397489264292	0.017767333984375	27.5999999303167	277	-7.62690906412899E-05	
29.2397489261767	0.0177703857421875	27.6999999300642	278	9.14993142941967E-05	
29.3397489259243	0.0177703857421875	27.7999999298117	279	-4.57403439213522E-05	
29.4397489256718	0.0177703857421875	27.8999999295593	280	1.01762489066459E-05	
29.5397489254193	0.017767333984375	27.9999999293068	281	-5.59228028578218E-05	
29.6397489251668	0.0177764892578125	28.0999999290543	282	0.000203407005756162	
29.7397489249144	0.01776123046875	28.1999999288018	283	-0.000396712275687605	
29.8397489246619	0.01776123046875	28.2999999285494	284	0.00020853549358435	
29.9397489244094	0.017767333984375	28.3999999282969	285	6.10450733802281E-05	
30.0397489241569	0.0177581787109375	28.4999999280444	286	-0.00023906423302833	
30.1397489239044	0.01776123046875	28.5999999277919	287	0.000183110387297347	
30.239748923652	0.01776123046875	28.6999999275395	288	-6.61176818539388E-05	
30.3397489233995	0.0177581787109375	28.799999927287	289	-4.57589703728445E-05	
30.439748923147	0.017767333984375	28.8999999270345	290	0.000203450472326949	
30.5397489228945	0.01776123046875	28.999999926782	291	-0.000228906617849134	
30.6397489226421	0.0177459716796875	29.0999999265296	292	-0.000178006739588454	
30.7397489223896	0.017767333984375	29.1999999262771	293	0.000549324962776154	
30.8397489221371	0.017755126953125	29.2999999260246	294	-0.000523924711160362	
30.9397489218846	0.017767333984375	29.3999999257721	295	0.000437473150668666	
31.0397489216322	0.0177520751953125	29.4999999255197	296	-0.000462885829620063	
31.1397489213797	0.0177642822265625	29.5999999252672	297	0.000442471238784492	
31.2397489211272	0.0177581787109375	29.6999999250147	298	-0.000305132241919637	
31.3397489208747	0.0177581787109375	29.7999999247622	299	0.000111901485070121	
31.4397489206223	0.0177581787109375	29.8999999245098	300	-2.03276631509652E-05	
31.5397489203698	0.0177520751953125	29.9999999242573	301	-0.000111895278678276	
31.6397489201173	0.0177520751953125	30.0999999240048	302	7.11902830516919E-05	
31.7397489198648	0.0177490234375	30.1999999237523	303	-7.63311763876118E-05	
31.8397489196124	0.0177520751953125	30.2999999234999	304	9.15862401598133E-05	
31.9397489193599	0.0177490234375	30.3999999232474	305	-0.000101781115517952	
32.0397489191074	0.0177490234375	30.4999999229949	306	4.57838068541605E-05	
32.1397489188549	0.0177490234375	30.5999999227424	307	-1.01886662378092E-05	
32.2397489186025	0.0177520751953125	30.69999992249	308	5.59662657906301E-05	
32.33974891835	0.0177459716796875	30.7999999222375	309	-0.000147533879498951	
32.4397489180975	0.017755126953125	30.899999921985	310	0.000249234290095046	
32.539748917845	0.017742919921875	30.9999999217325	311	-0.000350903632352129	
32.6397489175926	0.0177459716796875	31.09999992148	312	0.000228856952162459	
32.7397489173401	0.0177459716796875	31.1999999212276	313	-7.62877170927823E-05	
32.8397489170876	0.017742919921875	31.2999999209751	314	-4.57589703728445E-05	
32.9397489168351	0.017742919921875	31.3999999207226	315	3.56137679773383E-05	
33.0397489165827	0.0177490234375	31.4999999204701	316	0.000101700403320137	
33.1397489163302	0.01773681640625	31.5999999202177	317	-0.000294980825856328	
33.2397489160777	0.0177337646484375	31.6999999199652	318	0.000106754378066398	
33.3397489158252	0.0177337646484375	31.7999999197127	319	-5.07881122757681E-06	
33.4397489155728	0.017742919921875	31.8999999194602	320	0.00015769770834595	
33.5397489153203	0.01773681640625	31.9999999192078	321	-0.000218711735215038	
33.6397489150678	0.0177215576171875	32.0999999189553	322	-0.000178031579707749	
33.7397489148153	0.01773681640625	32.1999999187028	323	0.000437411072198302	
33.8397489145628	0.0177337646484375	32.2999999184503	324	-0.000284866662696004	
33.9397489143104	0.0177337646484375	32.3999999181979	325	8.64701723912731E-05	
34.0397489140579	0.01773681640625	32.4999999179454	326	4.57900168839842E-05	
34.1397489138054	0.0177398681640625	32.5999999176929	327	2.03028266696492E-05	
34.2397489135529	0.0177337646484375	32.6999999174404	328	-0.000137301743961871	
34.3397489133005	0.017730712890625	32.799999917188	329	2.54251008300344E-05	
34.439748913048	0.017730712890625	32.8999999169355	330	1.52550601342227E-05	
34.5397489127955	0.017724609375	32.999999916683	331	-0.000122077733976766	
34.639748912543	0.017724609375	33.0999999164305	332	7.12275359546766E-05	
34.7397489122906	0.0177215576171875	33.1999999161781	333	-7.62690906412899E-05	
34.8397489120381	0.0177215576171875	33.2999999159256	334	3.557030504453E-05	
34.9397489117856	0.017724609375	33.3999999156731	335	4.57527639809996E-05	
35.0397489115331	0.0177215576171875	33.4999999154206	336	-9.14993142941967E-05	
35.1397489112807	0.017724609375	33.5999999151682	337	0.000101669356808998	
35.2397489110282	0.0177215576171875	33.6999999149157	338	-0.000101669356808998	
35.3397489107757	0.0177276611328125	33.7999999146632	339	0.000157648042659275	
35.4397489105232	0.017724609375	33.8999999144107	340	-0.000137332797748968	
35.5397489102708	0.0177215576171875	33.9999999141583	341	4.34617106748192E-08	
35.6397489100183	0.017724609375	34.0999999139058	342	8.13230653875507E-05	
35.7397489097658	0.01771240234375	34.1999999136533	343	-0.000269506068434566	
35.8397489095133	0.0177093505859375	34.2999999134008	344	9.66029620030895E-05	
35.9397489092609	0.017706298828125	34.3999999131483	345	-6.098919766373E-05	
36.0397489090084	0.0177215576171875	34.4999999128959	346	0.000305138470139354	
36.1397489087559	0.017718505859375	34.5999999126434	347	-0.000244174094405025	
36.2397489085034	0.0177093505859375	34.6999999123909	348	-8.13665319583379E-05	
36.339748908251	0.0177154541015625	34.7999999121384	349	0.000208560333703645	
36.4397489079985	0.017718505859375	34.899999911886	350	-4.58086433354765E-05	
36.539748907746	0.01771240234375	34.9999999116335	351	-0.000127125502331182	
36.6397489074935	0.017706298828125	35.099999911381	352	-3.05225366901141E-05	
36.7397489072411	0.0177154541015625	35.1999999111285	353	0.000218686909647658	
36.8397489069886	0.0176971435546875	35.2999999108761	354	-0.000462817552033812	
36.9397489067361	0.0177032470703125	35.3999999106236	355	0.000356007280061021	
37.0397489064836	0.0177001953125	35.4999999103711	356	-0.000188176782103255	
37.1397489062311	0.0177032470703125	35.5999999101186	357	0.000111870438558981	
37.2397489059787	0.01771240234375	35.6999999098662	358	0.000122102574096061	
37.3397489057262	0.0176971435546875	35.7999999096137	359	-0.000376378418877721	
37.4397489054737	0.017694091796875	35.8999999093612	360	0.000152575434185565	
37.5397489052212	0.01771240234375	35.9999999091087	361	0.000320486637065187	
37.6397489049688	0.0177001953125	36.0999999088563	362	-0.000447618367616087	
37.7397489047163	0.0176971435546875	36.1999999086038	363	0.000147527665831149	
37.8397489044638	0.0176971435546875	36.2999999083513	364	-5.07881122757681E-06	
37.9397489042113	0.0177001953125	36.3999999080988	365	4.57713904324919E-05	
38.0397489039589	0.0176971435546875	36.4999999078464	366	-9.15303608053364E-05	
38.1397489037064	0.0176910400390625	36.5999999075939	367	-6.61238882457837E-05	
38.2397489034539	0.0176971435546875	36.6999999073414	368	0.000172927931998856	
38.3397489032014	0.017694091796875	36.7999999070889	369	-0.000147509039379656	
38.439748902949	0.017706298828125	36.8999999068365	370	0.000279787869658321	
38.5397489026965	0.0177001953125	36.999999906584	371	-0.00026453280588612	
38.639748902444	0.0177001953125	37.0999999063315	372	0.000111913905129768	
38.7397489021915	0.017694091796875	37.199999906079	373	-0.000132253975607455	
38.8397489019391	0.0176849365234375	37.2999999058266	374	-9.6609175670892E-05	
38.9397489016866	0.0176910400390625	37.3999999055741	375	0.000198359237401746	
39.0397489014341	0.0176971435546875	37.4999999053216	376	1.01638315754826E-05	
39.1397489011816	0.0176910400390625	37.5999999050691	377	-0.000162745476700366	
39.2397489009292	0.0176910400390625	37.6999999048167	378	9.15365671971813E-05	
39.3397489006767	0.0176910400390625	37.7999999045642	379	-2.03524978132918E-05	
39.4397489004242	0.01768798828125	37.8999999043117	380	-5.59848922421224E-05	
39.5397489001717	0.017694091796875	37.9999999040592	381	0.000147515253047459	
39.6397488999193	0.0176849365234375	38.0999999038067	382	-0.000249203236307949	
39.7397488996668	0.01768798828125	38.1999999035543	383	0.000183073134394363	
39.8397488994143	0.0176910400390625	38.2999999033018	384	-1.01514133348246E-05	
39.9397488991618	0.01768798828125	38.3999999030493	385	-8.14348240965046E-05	
40.0397488989094	0.01768798828125	38.4999999027968	386	4.57838068541605E-05	
40.1397488986569	0.01768798828125	38.5999999025444	387	-1.01886662378092E-05	
40.2397488984044	0.0176910400390625	38.6999999022919	388	5.59662657906301E-05	
40.3397488981519	0.0176910400390625	38.7999999020394	389	-3.56261843990069E-05	
40.4397488978994	0.017681884765625	38.8999999017869	390	-0.000157666669110768	
40.539748897647	0.017681884765625	38.9999999015345	391	0.000106835090264212	
40.6397488973945	0.017681884765625	39.099999901282	392	-3.05039120576112E-05	
40.739748897142	0.0176727294921875	39.1999999010295	393	-0.000167873964528553	
40.8397488968895	0.0176910400390625	39.299999900777	394	0.000442527118138969	
40.9397488966371	0.0176910400390625	39.3999999005246	395	-0.000244167895289138	
41.0397488963846	0.01767578125	39.4999999002721	396	-0.000218711735215038	
41.1397488961321	0.017681884765625	39.5999999000196	397	0.000289920659270138	
41.2397488958796	0.0176849365234375	39.6999998997671	398	-6.61176818539388E-05	
41.3397488956272	0.0176727294921875	39.7999998995147	399	-0.000239070446696132	
41.4397488953747	0.017681884765625	39.8999998992622	400	0.000320461811497808	
41.5397488951222	0.01767578125	39.9999998990097	401	-0.000259404332609847	
41.6397488948697	0.01767578125	40.0999998987572	402	0.000101712816103827	
41.7397488946173	0.01767578125	40.1999998985048	403	-2.03524978132918E-05	
41.8397488943648	0.0176788330078125	40.2999998982523	404	5.59228028578218E-05	
41.9397488941123	0.0176727294921875	40.3999998979998	405	-0.000147478000144474	
42.0397488938598	0.0176910400390625	40.4999998977473	406	0.000417077186284587	
42.1397488936074	0.01767578125	40.5999998974949	407	-0.000513736042194068	
42.2397488933549	0.017681884765625	40.6999998972424	408	0.000350959511706606	
42.3397488931024	0.0176788330078125	40.7999998969899	409	-0.000178025366039947	
42.4397488928499	0.0176849365234375	40.8999998967374	410	0.00016788016364444	
42.5397488925975	0.017681884765625	40.999999896485	411	-0.000137326584081165	
42.639748892345	0.0176727294921875	41.0999998962325	412	-0.000111926317913458	
42.7397488920925	0.017681884765625	41.19999989598	413	0.000264520378550515	
42.83974889184	0.01767578125	41.2999998957275	414	-0.000249234290095046	
42.9397488915876	0.0176788330078125	41.399999895475	415	0.000157641828991473	
43.0397488913351	0.0176666259765625	41.4999998952226	416	-0.000279682310065255	
43.1397488910826	0.0176727294921875	41.5999998949701	417	0.000264439673628658	
43.2397488908301	0.017681884765625	41.6999998947176	418	5.59848922421224E-05	
43.3397488905777	0.017669677734375	41.7999998944651	419	-0.000310279341647401	
43.4397488903252	0.0176727294921875	41.8999998942127	420	0.000228869364946149	
43.5397488900727	0.01767578125	41.9999998939602	421	-2.03276631509652E-05	
43.6397488898202	0.0176666259765625	42.0999998937077	422	-0.000193292842595838	
43.7397488895678	0.0176666259765625	42.1999998934552	423	0.000117011339170858	
43.8397488893153	0.01767578125	42.2999998932028	424	0.000137332797748968	
43.9397488890628	0.0176727294921875	42.3999998929503	425	-0.000162807569722645	
44.0397488888103	0.0176727294921875	42.4999998926978	426	6.61238882457837E-05	
44.1397488885578	0.01766357421875	42.5999998924453	427	-0.000178025366039947	
44.2397488883054	0.017669677734375	42.6999998921929	428	0.000218736575334333	
44.3397488880529	0.0176605224609375	42.7999998919404	429	-0.000269574346020818	
44.4397488878004	0.017669677734375	42.8999998916879	430	0.000294974626740441	
44.5397488875479	0.017669677734375	42.9999998914354	431	-0.000137314171297476	
44.6397488872955	0.0176544189453125	43.099999891183	432	-0.000249228061875328	
44.739748887043	0.0176666259765625	43.1999998909305	433	0.00040183454984799	
44.8397488867905	0.017669677734375	43.299999890678	434	-0.000137338996864855	
44.939748886538	0.017657470703125	43.3999998904255	435	-0.000218724162550643	
45.0397488862856	0.017669677734375	43.4999998901731	436	0.000376390817109495	
45.1397488860331	0.0176666259765625	43.5999998899206	437	-0.00023903940746095	
45.2397488857806	0.0176605224609375	43.6999998896681	438	-3.56013479176909E-05	
45.3397488855281	0.0176605224609375	43.7999998894156	439	6.10202405368909E-05	
45.4397488852757	0.0176666259765625	43.8999998891632	440	9.15551936486736E-05	
45.5397488850232	0.01766357421875	43.9999998889107	441	-0.000127162755234167	
45.6397488847707	0.0176513671875	44.0999998886582	442	-0.000167793245054781	
45.7397488845182	0.0176544189453125	44.1999998884057	443	0.000188164369319566	
45.8397488842658	0.017657470703125	44.2999998881533	444	-2.03587060241262E-05	
45.9397488840133	0.017657470703125	44.3999998879008	445	-2.54437272815267E-05	
46.0397488837608	0.017657470703125	44.4999998876483	446	1.01576224551536E-05	
46.1397488835083	0.0176544189453125	44.5999998873958	447	-5.59414293093141E-05	
46.2397488832559	0.0176544189453125	44.6999998871433	448	3.56013479176909E-05	
46.3397488830034	0.0176544189453125	44.7999998868909	449	-1.01700397863169E-05	
46.4397488827509	0.0176483154296875	44.8999998866384	450	-0.000111907691461965	
46.5397488824984	0.0176483154296875	44.9999998863859	451	7.12275359546766E-05	
46.639748882246	0.0176483154296875	45.0999998861334	452	-2.03400795726338E-05	
46.7397488819935	0.0176422119140625	45.199999885881	453	-0.000111901485070121	
46.839748881741	0.0176513671875	45.2999998856285	454	0.000239070446696132	
46.9397488814885	0.0176483154296875	45.399999885376	455	-0.00018312901374884	
47.0397488812361	0.0176605224609375	45.4999998851235	456	0.000289964111289009	
47.1397488809836	0.017645263671875	45.5999998848711	457	-0.000432369502959773	
47.2397488807311	0.01763916015625	45.6999998846186	458	0.000106797837361228	
47.3397488804786	0.0176422119140625	45.7999998843661	459	7.62877170927823E-05	
47.4397488802261	0.0176422119140625	45.8999998841136	460	-5.59600557608064E-05	
47.5397488799737	0.0176422119140625	45.9999998838612	461	1.01576224551536E-05	
47.6397488797212	0.017645263671875	46.0999998836087	462	5.59662657906301E-05	
47.7397488794687	0.01763916015625	46.1999998833562	463	-0.000147533879498951	
47.8397488792162	0.017645263671875	46.2999998831037	464	0.000193305269931443	
47.9397488789638	0.01763916015625	46.3999998828513	465	-0.000203481511562131	
48.0397488787113	0.01763916015625	46.4999998825988	466	9.1567613708321E-05	
48.1397488784588	0.0176422119140625	46.5999998823463	467	3.55827214661986E-05	
48.2397488782063	0.0176422119140625	46.6999998820938	468	-3.56137679773383E-05	
48.3397488779539	0.0176422119140625	46.7999998818414	469	1.01576224551536E-05	
48.4397488777014	0.0176361083984375	46.8999998815889	470	-0.000111870438558981	
48.5397488774489	0.017645263671875	46.9999998813364	471	0.00023905182024464	
48.6397488771964	0.01763916015625	47.0999998810839	472	-0.000239076660363935	
48.739748876944	0.0176361083984375	47.1999998808315	473	4.58086433354765E-05	
48.8397488766915	0.0176361083984375	47.299999880579	474	1.52674783748807E-05	
48.939748876439	0.0176361083984375	47.3999998803265	475	-1.01576224551536E-05	
49.0397488761865	0.0176300048828125	47.499999880074	476	-0.000111895278678276	
49.1397488759341	0.017645263671875	47.5999998798216	477	0.000350934686139226	
49.2397488756816	0.0176361083984375	47.6999998795691	478	-0.00036620837636292	
49.3397488754291	0.017633056640625	47.7999998793166	479	0.00010171902977163	
49.4397488751766	0.01763916015625	47.8999998790641	480	0.000117017545562703	
49.5397488749242	0.0176361083984375	47.9999998788117	481	-0.000137326584081165	
49.6397488746717	0.017633056640625	48.0999998785592	482	-1.86264479395959E-08	
49.7397488744192	0.017633056640625	48.1999998783067	483	2.54561437031953E-05	
49.8397488741667	0.0176361083984375	48.2999998780542	484	4.58086433354765E-05	
49.9397488739143	0.0176361083984375	48.3999998778017	485	-3.56075579475146E-05	
50.0397488736618	0.0176300048828125	48.4999998775493	486	-0.00010171902977163	
50.1397488734093	0.017626953125	48.5999998772968	487	1.52115981109091E-05	
50.2397488731568	0.0176239013671875	48.6999998770443	488	-4.06677427235991E-05	
50.3397488729044	0.0176239013671875	48.7999998767918	489	2.54251008300344E-05	
50.4397488726519	0.0176239013671875	48.8999998765394	490	-1.01700397863169E-05	
50.5397488723994	0.0176239013671875	48.9999998762869	491	0	
50.6397488721469	0.017620849609375	49.0999998760344	492	-5.59290128876455E-05	
50.7397488718944	0.0176300048828125	49.1999998757819	493	0.000203450472326949	
50.839748871642	0.017626953125	49.2999998755295	494	-0.000172977597685531	
50.9397488713895	0.017633056640625	49.399999875277	495	0.000178031579707749	
51.039748871137	0.0176239013671875	49.4999998750245	496	-0.000249203236307949	
51.1397488708845	0.0176300048828125	49.599999874772	497	0.00023905182024464	
51.2397488706321	0.0176239013671875	49.6999998745196	498	-0.000213651554076932	
51.3397488703796	0.017626953125	49.7999998742671	499	0.000147496626595967	
51.4397488701271	0.017626953125	49.8999998740146	500	-5.59600557608064E-05	
51.5397488698746	0.01761474609375	49.9999998737621	501	-0.00021360810205806	
51.6397488696222	0.0176239013671875	50.0999998735097	502	0.000310229690512642	
51.7397488693697	0.0176177978515625	50.1999998732572	503	-0.000259391905274242	
51.8397488691172	0.017626953125	50.2999998730047	504	0.000269580574240536	
51.9397488688647	0.017620849609375	50.3999998727522	505	-0.00023903940746095	
52.0397488686123	0.017620849609375	50.4999998724998	506	0.00010173144255532	
52.1397488683598	0.0176239013671875	50.5999998722473	507	3.56013479176909E-05	
52.2397488681073	0.0176177978515625	50.6999998719948	508	-0.000147509039379656	
52.3397488678548	0.017626953125	50.7999998717423	509	0.000249234290095046	
52.4397488676024	0.0176116943359375	50.8999998714899	510	-0.000406925770221278	
52.5397488673499	0.0176177978515625	50.9999998712374	511	0.00032043075771071	
52.6397488670974	0.0176025390625	51.0999998709849	512	-0.000401797296945006	
52.7397488668449	0.01761474609375	51.1999998707324	513	0.000422187062213197	
52.8397488665925	0.01761474609375	51.29999987048	514	-0.00019331146904733	
52.93974886634	0.0176055908203125	51.3999998702275	515	-0.000127150342450477	
53.0397488660875	0.017608642578125	51.499999869975	516	0.000162764103151858	
53.139748865835	0.0176055908203125	51.5999998697225	517	-0.000122046687465627	
53.2397488655826	0.0176025390625	51.69999986947	518	-1.01948753581382E-05	
53.3397488653301	0.01761474609375	51.7999998692176	519	0.000249271542998031	
53.4397488650776	0.0176116943359375	51.8999998689651	520	-0.000208603785722516	
53.5397488648251	0.0176116943359375	51.9999998687126	521	7.63001371524297E-05	
53.6397488645727	0.0176055908203125	52.0999998684601	522	-0.000122046687465627	
53.7397488643202	0.0176025390625	52.1999998682077	523	1.52364336827304E-05	
53.8397488640677	0.0176116943359375	52.2999998679552	524	0.000183122814632952	
53.9397488638152	0.0176025390625	52.3999998677027	525	-0.000284848036244512	
54.0397488635628	0.0176116943359375	52.4999998674502	526	0.000305181922158226	
54.1397488633103	0.0176116943359375	52.5999998671978	527	-0.00013735142420046	
54.2397488630578	0.0176025390625	52.6999998669453	528	-0.000137332797748968	
54.3397488628053	0.017608642578125	52.7999998666928	529	0.000218736575334333	
54.4397488625528	0.0176055908203125	52.8999998664403	530	-0.000157666669110768	
54.5397488623004	0.0176025390625	52.9999998661879	531	-1.86264479395959E-08	
54.6397488620479	0.0176025390625	53.0999998659354	532	2.54561437031953E-05	
54.7397488617954	0.0176055908203125	53.1999998656829	533	4.58086433354765E-05	
54.8397488615429	0.017596435546875	53.2999998654304	534	-0.000203493938897736	
54.9397488612905	0.0176025390625	53.399999865178	535	0.000228887991397642	
55.039748861038	0.0176025390625	53.4999998649255	536	-0.000101712816103827	
55.1397488607855	0.017596435546875	53.599999864673	537	-9.15551936486736E-05	
55.239748860533	0.0175933837890625	53.6999998644205	538	1.52550601342227E-05	
55.3397488602806	0.0175994873046875	53.7999998641681	539	0.000127162755234167	
55.4397488600281	0.0175994873046875	53.8999998639156	540	-8.139757119352E-05	
55.5397488597756	0.0175933837890625	53.9999998636631	541	-9.1567613708321E-05	
55.6397488595231	0.0176055908203125	54.0999998634106	542	0.000295036705210805	
55.7397488592707	0.0176025390625	54.1999998631582	543	-0.00021873036166653	
55.8397488590182	0.0176025390625	54.2999998629057	544	7.6318763603922E-05	
55.9397488587657	0.0175933837890625	54.3999998626532	545	-0.000178006739588454	
56.0397488585132	0.0176055908203125	54.4999998624007	546	0.000330613227561116	
56.1397488582608	0.0175933837890625	54.5999998621483	547	-0.000396737101254985	
56.2397488580083	0.0176055908203125	54.6999998618958	548	0.000406925770221278	
56.3397488577558	0.0175994873046875	54.7999998616433	549	-0.000295005680527538	
56.4397488575033	0.01759033203125	54.8999998613908	550	-5.59538457309827E-05	
56.5397488572509	0.0175994873046875	54.9999998611383	551	0.000254325510468334	
56.6397488569984	0.0175933837890625	55.0999998608859	552	-0.000249252916546538	
56.7397488567459	0.0175872802734375	55.1999998606334	553	-1.01700397863169E-05	
56.8397488564934	0.017596435546875	55.2999998603809	554	0.000218717948882841	
56.939748856241	0.01759033203125	55.3999998601284	555	-0.00023903940746095	
57.0397488559885	0.0175872802734375	55.499999859876	556	4.57527639809996E-05	
57.139748855736	0.017584228515625	55.5999998596235	557	-4.06429062422831E-05	
57.2397488554835	0.0175872802734375	55.699999859371	558	8.13230653875507E-05	
57.3397488552311	0.017584228515625	55.7999998591185	559	-0.000101669356808998	
57.4397488549786	0.0175872802734375	55.8999998588661	560	0.000101669356808998	
57.5397488547261	0.0175811767578125	55.9999998586136	561	-0.000157648042659275	
57.6397488544736	0.017584228515625	56.0999998583611	562	0.000137332797748968	
57.7397488542211	0.0175872802734375	56.1999998581086	563	-4.34617106748192E-08	
57.8397488539687	0.0175933837890625	56.2999998578562	564	8.65136389620602E-05	
57.9397488537162	0.01759033203125	56.3999998576037	565	-0.000116980299935676	
58.0397488534637	0.017578125	56.4999998573512	566	-0.000167855338077061	
58.1397488532112	0.017578125	56.5999998570987	567	0.000132247776491567	
58.2397488529588	0.0175811767578125	56.6999998568463	568	1.52364336827304E-05	
58.3397488527063	0.017578125	56.7999998565938	569	-9.15427808649838E-05	
58.4397488524538	0.017584228515625	56.8999998563413	570	0.000157679081894457	
58.5397488522013	0.0175750732421875	56.9999998560888	571	-0.000249234290095046	
58.6397488519489	0.0175750732421875	57.0999998558364	572	0.000127181381685659	
58.7397488516964	0.0175811767578125	57.1999998555839	573	8.13541118986905E-05	
58.8397488514439	0.0175689697265625	57.2999998553314	574	-0.000294980825856328	
58.9397488511914	0.017578125	57.3999998550789	575	0.000330569775542244	
59.039748850939	0.017584228515625	57.4999998548265	576	-3.55765150743537E-05	
59.1397488506865	0.017572021484375	57.599999854574	577	-0.000264526577666402	
59.239748850434	0.0175811767578125	57.6999998543215	578	0.000330631854012609	
59.3397488501815	0.0175750732421875	57.799999854069	579	-0.000259385706158355	
59.4397488499291	0.017578125	57.8999998538166	580	0.000157660455442965	
59.5397488496766	0.017572021484375	57.9999998535641	581	-0.000167849124409258	
59.6397488494241	0.01756591796875	58.0999998533116	582	-3.05101202684455E-05	
59.7397488491716	0.0175689697265625	58.1999998530591	583	0.00010681646381272	
59.8397488489192	0.0175750732421875	58.2999998528067	584	5.59352192794904E-05	
59.9397488486667	0.0175811767578125	58.3999998525542	585	5.08502016600687E-05	
60.0397488484142	0.0175689697265625	58.4999998523017	586	-0.000274634541710839	
60.1397488481617	0.0175689697265625	58.5999998520492	587	0.000162733063916676	
60.2397488479093	0.0175689697265625	58.6999998517967	588	-4.06925792049151E-05	
60.3397488476568	0.01756591796875	58.7999998515443	589	-5.59848922421224E-05	
60.4397488474043	0.0175750732421875	58.8999998512918	590	0.000203493938897736	
60.5397488471518	0.0175628662109375	58.9999998510393	591	-0.000340795697411522	
60.6397488468994	0.017559814453125	59.0999998507868	592	0.000117011339170858	
60.7397488466469	0.0175628662109375	59.1999998505344	593	5.08502016600687E-05	
60.8397488463944	0.0175628662109375	59.2999998502819	594	-4.57713904324919E-05	
60.9397488461419	0.0175628662109375	59.3999998500294	595	1.01700397863169E-05	
61.0397488458894	0.017572021484375	59.4999998497769	596	0.000167836711625569	
61.139748845637	0.0175628662109375	59.5999998495245	597	-0.000274628342594951	
61.2397488453845	0.0175628662109375	59.699999849272	598	0.000137314171297476	
61.339748845132	0.0175567626953125	59.7999998490195	599	-0.000142424018122256	
61.4397488448795	0.0175628662109375	59.899999848767	600	0.000183135227416642	
