Time (s)	WE(1).Potential (V)	Corrected time (s)	Index	dWE(1).Potential/dt (V/s)	Cutoffs	OCP value (V)
1.27374999678409	0.03037109375	0	1	0	dWE(1).Potential/dt < 1E-06 V/s	0.0295970841950061
1.37374999653161	0.0303680419921875	0.0999999997475243	2	-3.05287467199378E-05	dWE(1).Potential/dt < 1E-06 V/s	
1.47374999627914	0.030364990234375	0.199999999495049	3	-3.05008070426993E-05	dWE(1).Potential/dt < 1E-06 V/s	
1.57374999602666	0.0303680419921875	0.299999999242573	4	8.13292790553533E-05		
1.67374999577419	0.030364990234375	0.399999998990097	5	-0.000101663150417153	dWE(1).Potential/dt < 1E-06 V/s	
1.77374999552171	0.0303619384765625	0.499999998737621	6	-1.01824580269749E-05	dWE(1).Potential/dt < 1E-06 V/s	
1.87374999526924	0.03035888671875	0.599999998485146	7	-3.05846260744147E-05	dWE(1).Potential/dt < 1E-06 V/s	
1.97374999501676	0.0303558349609375	0.69999999823267	8	-3.04977020277875E-05	dWE(1).Potential/dt < 1E-06 V/s	
2.07374999476428	0.03035888671875	0.799999997980194	9	8.139757119352E-05		
2.17374999451181	0.03035888671875	0.899999997727718	10	-4.58148497273214E-05	dWE(1).Potential/dt < 1E-06 V/s	
2.27374999425933	0.030352783203125	0.999999997475243	11	-0.000101756282674614	dWE(1).Potential/dt < 1E-06 V/s	
2.37374999400686	0.0303558349609375	1.09999999722277	12	0.000127237261040136		
2.47374999375438	0.0303558349609375	1.19999999697029	13	-5.59476393391378E-05	dWE(1).Potential/dt < 1E-06 V/s	
2.57374999350191	0.030352783203125	1.29999999671782	14	-4.57838068541605E-05	dWE(1).Potential/dt < 1E-06 V/s	
2.67374999324943	0.0303497314453125	1.39999999646534	15	-2.02966184588149E-05	dWE(1).Potential/dt < 1E-06 V/s	
2.77374999299695	0.0303466796875	1.49999999621286	16	-3.05287467199378E-05	dWE(1).Potential/dt < 1E-06 V/s	
2.87374999274448	0.0303497314453125	1.59999999596039	17	8.13230653875507E-05		
2.973749992492	0.0303466796875	1.69999999570791	18	-0.000101675563200843	dWE(1).Potential/dt < 1E-06 V/s	
3.07374999223953	0.0303436279296875	1.79999999545544	19	-1.02445455922862E-05	dWE(1).Potential/dt < 1E-06 V/s	
3.17374999198705	0.0303436279296875	1.89999999520296	20	2.54313090408687E-05		
3.27374999173458	0.030340576171875	1.99999999495049	21	-6.61238882457837E-05	dWE(1).Potential/dt < 1E-06 V/s	
3.3737499914821	0.0303375244140625	2.09999999469801	22	-2.03338713617995E-05	dWE(1).Potential/dt < 1E-06 V/s	
3.47374999122962	0.030340576171875	2.19999999444553	23	8.14410377643071E-05		
3.57374999097715	0.0303375244140625	2.29999999419306	24	-0.000101756282674614	dWE(1).Potential/dt < 1E-06 V/s	
3.67374999072467	0.0303375244140625	2.39999999394058	25	4.58086433354765E-05		
3.7737499904722	0.0303375244140625	2.49999999368811	26	-1.01638315754826E-05	dWE(1).Potential/dt < 1E-06 V/s	
3.87374999021972	0.0303375244140625	2.59999999343563	27	1.24176313676116E-08	dWE(1).Potential/dt < 1E-06 V/s	
3.97374998996725	0.03033447265625	2.69999999318316	28	-5.59165928279981E-05	dWE(1).Potential/dt < 1E-06 V/s	
4.07374998971477	0.0303375244140625	2.79999999293068	29	9.15055279619992E-05		
4.17374998946229	0.030328369140625	2.8999999926782	30	-0.000213570849155076	dWE(1).Potential/dt < 1E-06 V/s	
4.27374998920982	0.030328369140625	2.99999999242573	31	0.000116924420581199		
4.37374998895734	0.0303253173828125	3.09999999217325	32	-8.64639659994282E-05	dWE(1).Potential/dt < 1E-06 V/s	
4.47374998870487	0.030328369140625	3.19999999192078	33	9.15738201001659E-05		
4.57374998845239	0.030322265625	3.2999999916683	34	-0.000157722548465244	dWE(1).Potential/dt < 1E-06 V/s	
4.67374998819992	0.0303253173828125	3.39999999141583	35	0.000137407303554937		
4.77374998794744	0.0303253173828125	3.49999999116335	36	-5.59476393391378E-05	dWE(1).Potential/dt < 1E-06 V/s	
4.87374998769496	0.0303253173828125	3.59999999091087	37	1.01948753581382E-05		
4.97374998744249	0.0303192138671875	3.6999999906584	38	-0.000111889065010473	dWE(1).Potential/dt < 1E-06 V/s	
5.07374998719001	0.030316162109375	3.79999999040592	39	1.52674783748807E-05		
5.17374998693754	0.030316162109375	3.89999999015345	40	1.52178072312381E-05		
5.27374998668506	0.0303131103515625	3.99999998990097	41	-6.61611411487684E-05	dWE(1).Potential/dt < 1E-06 V/s	
5.37374998643259	0.0303131103515625	4.0999999896485	42	3.56013479176909E-05		
5.47374998618011	0.03031005859375	4.19999998939602	43	-6.61238882457837E-05	dWE(1).Potential/dt < 1E-06 V/s	
5.57374998592763	0.03031005859375	4.29999998914354	44	3.56448108504992E-05		
5.67374998567516	0.03031005859375	4.39999998889107	45	-1.01514133348246E-05	dWE(1).Potential/dt < 1E-06 V/s	
5.77374998542268	0.030303955078125	4.49999998863859	46	-0.000111889065010473	dWE(1).Potential/dt < 1E-06 V/s	
5.87374998517021	0.0303070068359375	4.59999998838612	47	0.000127125502331182		
5.97374998491773	0.0302978515625	4.69999998813364	48	-0.000223747090785764	dWE(1).Potential/dt < 1E-06 V/s	
6.07374998466526	0.0303009033203125	4.79999998788117	49	0.000172903106431477		
6.17374998441278	0.0303009033203125	4.89999998762869	50	-6.6148721089121E-05	dWE(1).Potential/dt < 1E-06 V/s	
6.2737499841603	0.0302978515625	4.99999998737621	51	-4.58148497273214E-05	dWE(1).Potential/dt < 1E-06 V/s	
6.37374998390783	0.0302978515625	5.09999998712374	52	3.56013479176909E-05		
6.47374998365535	0.0302947998046875	5.19999998687126	53	-6.61238882457837E-05	dWE(1).Potential/dt < 1E-06 V/s	
6.57374998340288	0.0302947998046875	5.29999998661879	54	3.56448108504992E-05		
6.6737499831504	0.0302947998046875	5.39999998636631	55	-1.01514133348246E-05	dWE(1).Potential/dt < 1E-06 V/s	
6.77374998289793	0.0302947998046875	5.49999998611383	56	1.86264479395959E-08	dWE(1).Potential/dt < 1E-06 V/s	
6.87374998264545	0.0302886962890625	5.59999998586136	57	-0.000111889065010473	dWE(1).Potential/dt < 1E-06 V/s	
6.97374998239297	0.03028564453125	5.69999998560888	58	1.52674783748807E-05		
7.0737499821405	0.0302886962890625	5.79999998535641	59	7.11468164809048E-05		
7.17374998188802	0.0302886962890625	5.89999998510393	60	-4.57465539511759E-05	dWE(1).Potential/dt < 1E-06 V/s	
7.27374998163555	0.03028564453125	5.99999998485146	61	-4.57589703728445E-05	dWE(1).Potential/dt < 1E-06 V/s	
7.37374998138307	0.0302825927734375	6.09999998459898	62	-2.04145853786031E-05	dWE(1).Potential/dt < 1E-06 V/s	
7.4737499811306	0.030279541015625	6.1999999843465	63	-3.04977020277875E-05	dWE(1).Potential/dt < 1E-06 V/s	
7.57374998087812	0.030279541015625	6.29999998409403	64	2.54685619438533E-05		
7.67374998062564	0.0302764892578125	6.39999998384155	65	-6.61300946376286E-05	dWE(1).Potential/dt < 1E-06 V/s	
7.77374998037317	0.0302764892578125	6.49999998358908	66	3.56323944288306E-05		
7.87374998012069	0.0302734375	6.5999999833366	67	-6.6092841734644E-05	dWE(1).Potential/dt < 1E-06 V/s	
7.97374997986822	0.0302764892578125	6.69999998308413	68	9.15055279619992E-05		
8.07374997961574	0.0302734375	6.79999998283165	69	-0.000101663150417153	dWE(1).Potential/dt < 1E-06 V/s	
8.17374997936327	0.0302703857421875	6.89999998257917	70	-1.01824580269749E-05	dWE(1).Potential/dt < 1E-06 V/s	
8.27374997911079	0.030267333984375	6.9999999823267	71	-3.05846260744147E-05	dWE(1).Potential/dt < 1E-06 V/s	
8.37374997885831	0.030267333984375	7.09999998207422	72	2.54313090408687E-05		
8.47374997860584	0.0302642822265625	7.19999998182175	73	-6.61238882457837E-05	dWE(1).Potential/dt < 1E-06 V/s	
8.57374997835336	0.0302642822265625	7.29999998156927	74	3.56448108504992E-05		
8.67374997810089	0.03026123046875	7.3999999813168	75	-6.61300946376286E-05	dWE(1).Potential/dt < 1E-06 V/s	
8.77374997784841	0.03026123046875	7.49999998106432	76	3.56323944288306E-05		
8.87374997759594	0.030255126953125	7.59999998081184	77	-0.00012202185462229	dWE(1).Potential/dt < 1E-06 V/s	
8.97374997734346	0.030255126953125	7.69999998055937	78	7.11406100890599E-05		
9.07374997709098	0.0302520751953125	7.79999998030689	79	-7.63311763876118E-05	dWE(1).Potential/dt < 1E-06 V/s	
9.17374997683851	0.030255126953125	7.89999998005442	80	9.15800337679684E-05		
9.27374997658603	0.0302520751953125	7.99999997980194	81	-0.000101787321909796	dWE(1).Potential/dt < 1E-06 V/s	
9.37374997633356	0.030255126953125	8.09999997954947	82	0.000101756282674614		
9.47374997608108	0.030255126953125	8.19999997929699	83	-4.58086433354765E-05	dWE(1).Potential/dt < 1E-06 V/s	
9.5737499758286	0.030255126953125	8.29999997904451	84	1.01638315754826E-05		
9.67374997557613	0.0302490234375	8.39999997879204	85	-0.000111920111521613	dWE(1).Potential/dt < 1E-06 V/s	
9.77374997532365	0.0302459716796875	8.49999997853956	86	1.5286104826373E-05		
9.87374997507118	0.0302459716796875	8.59999997828709	87	1.5286104826373E-05		
9.9737499748187	0.030242919921875	8.69999997803461	88	-6.6092841734644E-05	dWE(1).Potential/dt < 1E-06 V/s	
10.0737499745662	0.030242919921875	8.79999997778214	89	3.55765150743537E-05		
10.1737499743138	0.0302398681640625	8.89999997752966	90	-6.60990554024465E-05	dWE(1).Potential/dt < 1E-06 V/s	
10.2737499740613	0.030242919921875	8.99999997727718	91	9.14931079023518E-05		
10.3737499738088	0.0302398681640625	9.09999997702471	92	-0.000101675563200843	dWE(1).Potential/dt < 1E-06 V/s	
10.4737499735563	0.030242919921875	9.19999997677223	93	0.000101663150417153		
10.5737499733038	0.03023681640625	9.29999997651976	94	-0.000157654241775163	dWE(1).Potential/dt < 1E-06 V/s	
10.6737499730514	0.03023681640625	9.39999997626728	95	8.13479055068456E-05		
10.7737499727989	0.0302337646484375	9.49999997601481	96	-7.62939307605848E-05	dWE(1).Potential/dt < 1E-06 V/s	
10.8737499725464	0.0302337646484375	9.59999997576233	97	3.56448108504992E-05		
10.9737499722939	0.030230712890625	9.69999997550985	98	-6.61300946376286E-05	dWE(1).Potential/dt < 1E-06 V/s	
11.0737499720415	0.030230712890625	9.79999997525738	99	3.56323944288306E-05		
11.173749971789	0.0302337646484375	9.8999999750049	100	4.58148497273214E-05		
11.2737499715365	0.0302276611328125	9.99999997475243	101	-0.000147509039379656	dWE(1).Potential/dt < 1E-06 V/s	
11.373749971284	0.0302276611328125	10.0999999745	102	8.13727383501828E-05		
11.4737499710316	0.030224609375	10.1999999742475	103	-7.62753043090925E-05	dWE(1).Potential/dt < 1E-06 V/s	
11.5737499707791	0.030224609375	10.299999973995	104	3.55640950147063E-05		
11.6737499705266	0.030218505859375	10.3999999737425	105	-0.000122090146760456	dWE(1).Potential/dt < 1E-06 V/s	
11.7737499702741	0.0302215576171875	10.49999997349	106	0.000127193794469349		
11.8737499700217	0.030218505859375	10.5999999732376	107	-0.000111920111521613	dWE(1).Potential/dt < 1E-06 V/s	
11.9737499697692	0.030218505859375	10.6999999729851	108	4.58148497273214E-05		
12.0737499695167	0.030218505859375	10.7999999727326	109	-1.01514133348246E-05	dWE(1).Potential/dt < 1E-06 V/s	
12.1737499692642	0.03021240234375	10.8999999724801	110	-0.000111889065010473	dWE(1).Potential/dt < 1E-06 V/s	
12.2737499690118	0.0302154541015625	10.9999999722277	111	0.000127125502331182		
12.3737499687593	0.03021240234375	11.0999999719752	112	-0.000111839399323799	dWE(1).Potential/dt < 1E-06 V/s	
12.4737499685068	0.0302093505859375	11.1999999717227	113	-1.01824580269749E-05	dWE(1).Potential/dt < 1E-06 V/s	
12.5737499682543	0.0302093505859375	11.2999999714702	114	2.5394056137884E-05		
12.6737499680019	0.030206298828125	11.3999999712178	115	-6.61611411487684E-05	dWE(1).Potential/dt < 1E-06 V/s	
12.7737499677494	0.0302093505859375	11.4999999709653	116	9.15800337679684E-05		
12.8737499674969	0.0302032470703125	11.5999999707128	117	-0.000157716334797442	dWE(1).Potential/dt < 1E-06 V/s	
12.9737499672444	0.030206298828125	11.6999999704603	118	0.000137370050651953		
13.073749966992	0.0302032470703125	11.7999999702079	119	-0.000111920111521613	dWE(1).Potential/dt < 1E-06 V/s	
13.1737499667395	0.030206298828125	11.8999999699554	120	0.000101743862614967		
13.273749966487	0.030194091796875	11.9999999697029	121	-0.000269580574240536	dWE(1).Potential/dt < 1E-06 V/s	
13.3737499662345	0.0301971435546875	12.0999999694504	122	0.000208485827897675		
13.4737499659821	0.0302001953125	12.199999969198	123	-2.03338713617995E-05	dWE(1).Potential/dt < 1E-06 V/s	
13.5737499657296	0.0301971435546875	12.2999999689455	124	-8.13230653875507E-05	dWE(1).Potential/dt < 1E-06 V/s	
13.6737499654771	0.030194091796875	12.399999968693	125	-1.01824580269749E-05	dWE(1).Potential/dt < 1E-06 V/s	
13.7737499652246	0.030194091796875	12.4999999684405	126	2.5394056137884E-05		
13.8737499649721	0.0301910400390625	12.5999999681881	127	-6.61611411487684E-05	dWE(1).Potential/dt < 1E-06 V/s	
13.9737499647197	0.0301910400390625	12.6999999679356	128	3.56013479176909E-05		
14.0737499644672	0.03018798828125	12.7999999676831	129	-6.61238882457837E-05	dWE(1).Potential/dt < 1E-06 V/s	
14.1737499642147	0.0301849365234375	12.8999999674306	130	-2.03338713617995E-05	dWE(1).Potential/dt < 1E-06 V/s	
14.2737499639622	0.0301849365234375	12.9999999671782	131	2.5462353733019E-05		
14.3737499637098	0.0301849365234375	13.0999999669257	132	-1.01638315754826E-05	dWE(1).Potential/dt < 1E-06 V/s	
14.4737499634573	0.0301849365234375	13.1999999666732	133	1.24176313676116E-08	dWE(1).Potential/dt < 1E-06 V/s	
14.5737499632048	0.0301849365234375	13.2999999664207	134	1.24176313676116E-08	dWE(1).Potential/dt < 1E-06 V/s	
14.6737499629523	0.030181884765625	13.3999999661683	135	-5.59165928279981E-05	dWE(1).Potential/dt < 1E-06 V/s	
14.7737499626999	0.0301788330078125	13.4999999659158	136	-2.03524978132918E-05	dWE(1).Potential/dt < 1E-06 V/s	
14.8737499624474	0.0301788330078125	13.5999999656633	137	2.5394056137884E-05		
14.9737499621949	0.03017578125	13.6999999654108	138	-6.61611411487684E-05	dWE(1).Potential/dt < 1E-06 V/s	
15.0737499619424	0.03017578125	13.7999999651583	139	3.56013479176909E-05		
15.17374996169	0.03017578125	13.8999999649059	140	-1.01948753581382E-05	dWE(1).Potential/dt < 1E-06 V/s	
15.2737499614375	0.0301727294921875	13.9999999646534	141	-5.59476393391378E-05	dWE(1).Potential/dt < 1E-06 V/s	
15.373749961185	0.030169677734375	14.0999999644009	142	-2.03338713617995E-05	dWE(1).Potential/dt < 1E-06 V/s	
15.4737499609325	0.0301727294921875	14.1999999641484	143	8.14410377643071E-05		
15.5737499606801	0.030169677734375	14.299999963896	144	-0.000101756282674614	dWE(1).Potential/dt < 1E-06 V/s	
15.6737499604276	0.0301666259765625	14.3999999636435	145	-1.0120369552169E-05	dWE(1).Potential/dt < 1E-06 V/s	
15.7737499601751	0.03016357421875	14.499999963391	146	-3.05287467199378E-05	dWE(1).Potential/dt < 1E-06 V/s	
15.8737499599226	0.0301666259765625	14.5999999631385	147	8.13230653875507E-05		
15.9737499596702	0.03016357421875	14.6999999628861	148	-0.000101675563200843	dWE(1).Potential/dt < 1E-06 V/s	
16.0737499594177	0.03016357421875	14.7999999626336	149	4.57341375295073E-05		
16.1737499591652	0.030157470703125	14.8999999623811	150	-0.000122090146760456	dWE(1).Potential/dt < 1E-06 V/s	
16.2737499589127	0.03016357421875	14.9999999621286	151	0.000183172480319627		
16.3737499586603	0.030157470703125	15.0999999618762	152	-0.000203512565349229	dWE(1).Potential/dt < 1E-06 V/s	
16.4737499584078	0.0301605224609375	15.1999999616237	153	0.000147540093166754		
16.5737499581553	0.030157470703125	15.2999999613712	154	-0.000111920111521613	dWE(1).Potential/dt < 1E-06 V/s	
16.6737499579028	0.030157470703125	15.3999999611187	155	4.58148497273214E-05		
16.7737499576504	0.030157470703125	15.4999999608663	156	-1.01514133348246E-05	dWE(1).Potential/dt < 1E-06 V/s	
16.8737499573979	0.0301544189453125	15.5999999606138	157	-5.59600557608064E-05	dWE(1).Potential/dt < 1E-06 V/s	
16.9737499571454	0.0301483154296875	15.6999999603613	158	-7.62256313464604E-05	dWE(1).Potential/dt < 1E-06 V/s	
17.0737499568929	0.0301513671875	15.7999999601088	159	0.00011689337407006		
17.1737499566404	0.0301483154296875	15.8999999598564	160	-0.000111845605715644	dWE(1).Potential/dt < 1E-06 V/s	
17.273749956388	0.030145263671875	15.9999999596039	161	-1.02445455922862E-05	dWE(1).Potential/dt < 1E-06 V/s	
17.3737499561355	0.03013916015625	16.0999999593514	162	-8.64763860590756E-05	dWE(1).Potential/dt < 1E-06 V/s	
17.473749955883	0.030145263671875	16.1999999590989	163	0.000172990025021136		
17.5737499556305	0.03013916015625	16.2999999588465	164	-0.000203518764465116	dWE(1).Potential/dt < 1E-06 V/s	
17.6737499553781	0.03013916015625	16.399999958594	165	9.16048666113056E-05		
17.7737499551256	0.0301361083984375	16.4999999583415	166	-7.62628842494451E-05	dWE(1).Potential/dt < 1E-06 V/s	
17.8737499548731	0.0301361083984375	16.599999958089	167	3.55765150743537E-05		
17.9737499546206	0.0301361083984375	16.6999999578366	168	-1.01700397863169E-05	dWE(1).Potential/dt < 1E-06 V/s	
18.0737499543682	0.030133056640625	16.7999999575841	169	-5.59290128876455E-05	dWE(1).Potential/dt < 1E-06 V/s	
18.1737499541157	0.030133056640625	16.8999999573316	170	3.55640950147063E-05		
18.2737499538632	0.030126953125	16.9999999570791	171	-0.000122090146760456	dWE(1).Potential/dt < 1E-06 V/s	
18.3737499536107	0.030126953125	17.0999999568267	172	7.12647888576612E-05		
18.4737499533583	0.030126953125	17.1999999565742	173	-2.03276631509652E-05	dWE(1).Potential/dt < 1E-06 V/s	
18.5737499531058	0.030126953125	17.2999999563217	174	1.86264479395959E-08	dWE(1).Potential/dt < 1E-06 V/s	
18.6737499528533	0.0301239013671875	17.3999999560692	175	-5.59600557608064E-05	dWE(1).Potential/dt < 1E-06 V/s	
18.7737499526008	0.030120849609375	17.4999999558167	176	-2.02966184588149E-05	dWE(1).Potential/dt < 1E-06 V/s	
18.8737499523484	0.030120849609375	17.5999999555643	177	2.54002643487183E-05		
18.9737499520959	0.030126953125	17.6999999553118	178	0.000101737656223122		
19.0737499518434	0.030120849609375	17.7999999550593	179	-0.000183085561729968	dWE(1).Potential/dt < 1E-06 V/s	
19.1737499515909	0.030120849609375	17.8999999548068	180	9.15427808649838E-05		
19.2737499513385	0.0301177978515625	17.9999999545544	181	-7.62753043090925E-05	dWE(1).Potential/dt < 1E-06 V/s	
19.373749951086	0.03011474609375	18.0999999543019	182	-2.04145853786031E-05	dWE(1).Potential/dt < 1E-06 V/s	
19.4737499508335	0.03011474609375	18.1999999540494	183	2.54313090408687E-05		
19.573749950581	0.03011474609375	18.2999999537969	184	-1.01948753581382E-05	dWE(1).Potential/dt < 1E-06 V/s	
19.6737499503286	0.03011474609375	18.3999999535445	185	-1.86264479395959E-08	dWE(1).Potential/dt < 1E-06 V/s	
19.7737499500761	0.030108642578125	18.499999953292	186	-0.000111926317913458	dWE(1).Potential/dt < 1E-06 V/s	
19.8737499498236	0.030108642578125	18.5999999530395	187	7.12585751898587E-05		
19.9737499495711	0.030108642578125	18.699999952787	188	-2.03338713617995E-05	dWE(1).Potential/dt < 1E-06 V/s	
20.0737499493187	0.0301116943359375	18.7999999525346	189	5.59910986339673E-05		
20.1737499490662	0.030108642578125	18.8999999522821	190	-9.15800337679684E-05	dWE(1).Potential/dt < 1E-06 V/s	
20.2737499488137	0.0301055908203125	18.9999999520296	191	-1.0120369552169E-05	dWE(1).Potential/dt < 1E-06 V/s	
20.3737499485612	0.030108642578125	19.0999999517771	192	8.13292790553533E-05		
20.4737499483088	0.0300994873046875	19.1999999515247	193	-0.000213570849155076	dWE(1).Potential/dt < 1E-06 V/s	
20.5737499480563	0.030096435546875	19.2999999512722	194	6.09954040555749E-05		
20.6737499478038	0.0300994873046875	19.3999999510197	195	6.10574934398755E-05		
20.7737499475513	0.0301025390625	19.4999999507672	196	1.01638315754826E-05		
20.8737499472988	0.0300994873046875	19.5999999505148	197	-8.14410377643071E-05	dWE(1).Potential/dt < 1E-06 V/s	
20.9737499470464	0.0300994873046875	19.6999999502623	198	4.57775968243368E-05		
21.0737499467939	0.0300933837890625	19.7999999500098	199	-0.000122102574096061	dWE(1).Potential/dt < 1E-06 V/s	
21.1737499465414	0.030096435546875	19.8999999497573	200	0.000127237261040136		
21.2737499462889	0.0300933837890625	19.9999999495049	201	-0.000111926317913458	dWE(1).Potential/dt < 1E-06 V/s	
21.3737499460365	0.03009033203125	20.0999999492524	202	-1.0120369552169E-05	dWE(1).Potential/dt < 1E-06 V/s	
21.473749945784	0.03009033203125	20.1999999489999	203	2.54002643487183E-05		
21.5737499455315	0.03009033203125	20.2999999487474	204	-1.01700397863169E-05	dWE(1).Potential/dt < 1E-06 V/s	
21.673749945279	0.0300872802734375	20.399999948495	205	-5.59290128876455E-05	dWE(1).Potential/dt < 1E-06 V/s	
21.7737499450266	0.0300872802734375	20.4999999482425	206	3.55640950147063E-05		
21.8737499447741	0.030084228515625	20.59999994799	207	-6.61611411487684E-05	dWE(1).Potential/dt < 1E-06 V/s	
21.9737499445216	0.030084228515625	20.6999999477375	208	3.56013479176909E-05		
22.0737499442691	0.030084228515625	20.799999947485	209	-1.01948753581382E-05	dWE(1).Potential/dt < 1E-06 V/s	
22.1737499440167	0.0300811767578125	20.8999999472326	210	-5.59476393391378E-05	dWE(1).Potential/dt < 1E-06 V/s	
22.2737499437642	0.030078125	20.9999999469801	211	-2.03338713617995E-05	dWE(1).Potential/dt < 1E-06 V/s	
22.3737499435117	0.030078125	21.0999999467276	212	2.5462353733019E-05		
22.4737499432592	0.030078125	21.1999999464751	213	-1.01638315754826E-05	dWE(1).Potential/dt < 1E-06 V/s	
22.5737499430068	0.030078125	21.2999999462227	214	1.24176313676116E-08	dWE(1).Potential/dt < 1E-06 V/s	
22.6737499427543	0.030078125	21.3999999459702	215	1.24176313676116E-08	dWE(1).Potential/dt < 1E-06 V/s	
22.7737499425018	0.030072021484375	21.4999999457177	216	-0.000111845605715644	dWE(1).Potential/dt < 1E-06 V/s	
22.8737499422493	0.030072021484375	21.5999999454652	217	7.11406100890599E-05		
22.9737499419969	0.0300750732421875	21.6999999452128	218	3.55765150743537E-05		
23.0737499417444	0.030078125	21.7999999449603	219	2.03524978132918E-05		
23.1737499414919	0.030072021484375	21.8999999447078	220	-0.000137252078275196	dWE(1).Potential/dt < 1E-06 V/s	
23.2737499412394	0.030072021484375	21.9999999444553	221	8.13106526038609E-05		
23.373749940987	0.03006591796875	22.0999999442029	222	-0.000132260189275257	dWE(1).Potential/dt < 1E-06 V/s	
23.4737499407345	0.030059814453125	22.1999999439504	223	-4.06429062422831E-05	dWE(1).Potential/dt < 1E-06 V/s	
23.573749940482	0.0300628662109375	22.2999999436979	224	0.000106779210909735		
23.6737499402295	0.03006591796875	22.3999999434454	225	6.82969698573288E-08	dWE(1).Potential/dt < 1E-06 V/s	
23.7737499399771	0.030059814453125	22.499999943193	226	-0.000137338996864855	dWE(1).Potential/dt < 1E-06 V/s	
23.8737499397246	0.0300628662109375	22.5999999429405	227	0.000137301743961871		
23.9737499394721	0.0300628662109375	22.699999942688	228	-5.59103864361532E-05	dWE(1).Potential/dt < 1E-06 V/s	
24.0737499392196	0.030059814453125	22.7999999424355	229	-4.57465539511759E-05	dWE(1).Potential/dt < 1E-06 V/s	
24.1737499389671	0.0300567626953125	22.8999999421831	230	-2.03524978132918E-05	dWE(1).Potential/dt < 1E-06 V/s	
24.2737499387147	0.030059814453125	22.9999999419306	231	8.13230653875507E-05		
24.3737499384622	0.0300537109375	23.0999999416781	232	-0.000157654241775163	dWE(1).Potential/dt < 1E-06 V/s	
24.4737499382097	0.0300567626953125	23.1999999414256	233	0.000137326584081165		
24.5737499379572	0.0300567626953125	23.2999999411732	234	-5.59786822122987E-05	dWE(1).Potential/dt < 1E-06 V/s	
24.6737499377048	0.0300506591796875	23.3999999409207	235	-0.000101743862614967	dWE(1).Potential/dt < 1E-06 V/s	
24.7737499374523	0.0300537109375	23.4999999406682	236	0.000127193794469349		
24.8737499371998	0.030047607421875	23.5999999404157	237	-0.000167898790095933	dWE(1).Potential/dt < 1E-06 V/s	
24.9737499369473	0.030047607421875	23.6999999401633	238	8.14286177046597E-05		
25.0737499366949	0.0300445556640625	23.7999999399108	239	-7.62628842494451E-05	dWE(1).Potential/dt < 1E-06 V/s	
25.1737499364424	0.0300445556640625	23.8999999396583	240	3.55765150743537E-05		
25.2737499361899	0.03004150390625	23.9999999394058	241	-6.60990554024465E-05	dWE(1).Potential/dt < 1E-06 V/s	
25.3737499359374	0.0300445556640625	24.0999999391533	242	9.14931079023518E-05		
25.473749935685	0.030035400390625	24.1999999389009	243	-0.000213583261938766	dWE(1).Potential/dt < 1E-06 V/s	
25.5737499354325	0.03004150390625	24.2999999386484	244	0.000228919030632824		
25.67374993518	0.0300445556640625	24.3999999383959	245	-4.58458962384611E-05	dWE(1).Potential/dt < 1E-06 V/s	
25.7737499349275	0.0300384521484375	24.4999999381434	246	-0.000127137915114872	dWE(1).Potential/dt < 1E-06 V/s	
25.8737499346751	0.0300323486328125	24.599999937891	247	-3.05597895930987E-05	dWE(1).Potential/dt < 1E-06 V/s	
25.9737499344226	0.030035400390625	24.6999999376385	248	0.000106890969618689		
26.0737499341701	0.030035400390625	24.799999937386	249	-5.59476393391378E-05	dWE(1).Potential/dt < 1E-06 V/s	
26.1737499339176	0.0300323486328125	24.8999999371335	250	-4.57838068541605E-05	dWE(1).Potential/dt < 1E-06 V/s	
26.2737499336652	0.030029296875	24.9999999368811	251	-2.02966184588149E-05	dWE(1).Potential/dt < 1E-06 V/s	
26.3737499334127	0.0300262451171875	25.0999999366286	252	-3.05287467199378E-05	dWE(1).Potential/dt < 1E-06 V/s	
26.4737499331602	0.030029296875	25.1999999363761	253	8.13230653875507E-05		
26.5737499329077	0.030023193359375	25.2999999361236	254	-0.000157654241775163	dWE(1).Potential/dt < 1E-06 V/s	
26.6737499326553	0.0300262451171875	25.3999999358712	255	0.000137326584081165		
26.7737499324028	0.030023193359375	25.4999999356187	256	-0.000111957364424597	dWE(1).Potential/dt < 1E-06 V/s	
26.8737499321503	0.030023193359375	25.5999999353662	257	4.57775968243368E-05		
26.9737499318978	0.0300201416015625	25.6999999351137	258	-6.61238882457837E-05	dWE(1).Potential/dt < 1E-06 V/s	
27.0737499316454	0.0300201416015625	25.7999999348613	259	3.56448108504992E-05		
27.1737499313929	0.03001708984375	25.8999999346088	260	-6.61300946376286E-05	dWE(1).Potential/dt < 1E-06 V/s	
27.2737499311404	0.0300201416015625	25.9999999343563	261	9.16110730031505E-05		
27.3737499308879	0.0300140380859375	26.0999999341038	262	-0.00015768529556226	dWE(1).Potential/dt < 1E-06 V/s	
27.4737499306354	0.0300140380859375	26.1999999338514	263	8.13727383501828E-05		
27.573749930383	0.0300140380859375	26.2999999335989	264	-2.03462896024575E-05	dWE(1).Potential/dt < 1E-06 V/s	
27.6737499301305	0.030010986328125	26.3999999333464	265	-5.59290128876455E-05	dWE(1).Potential/dt < 1E-06 V/s	
27.773749929878	0.030010986328125	26.4999999330939	266	3.55640950147063E-05		
27.8737499296255	0.0300079345703125	26.5999999328415	267	-6.61611411487684E-05	dWE(1).Potential/dt < 1E-06 V/s	
27.9737499293731	0.0300079345703125	26.699999932589	268	3.56013479176909E-05		
28.0737499291206	0.0300018310546875	26.7999999323365	269	-0.000122102574096061	dWE(1).Potential/dt < 1E-06 V/s	
28.1737499288681	0.0300048828125	26.899999932084	270	0.000127237261040136		
28.2737499286156	0.0300018310546875	26.9999999318316	271	-0.000111926317913458	dWE(1).Potential/dt < 1E-06 V/s	
28.3737499283632	0.0300048828125	27.0999999315791	272	0.000101787321909796		
28.4737499281107	0.0300018310546875	27.1999999313266	273	-0.000101756282674614	dWE(1).Potential/dt < 1E-06 V/s	
28.5737499278582	0.029998779296875	27.2999999310741	274	-1.0120369552169E-05	dWE(1).Potential/dt < 1E-06 V/s	
28.6737499276057	0.029998779296875	27.3999999308217	275	2.54002643487183E-05		
28.7737499273533	0.0299957275390625	27.4999999305692	276	-6.60990554024465E-05	dWE(1).Potential/dt < 1E-06 V/s	
28.8737499271008	0.029998779296875	27.5999999303167	277	9.14931079023518E-05		
28.9737499268483	0.0299957275390625	27.6999999300642	278	-0.000101675563200843	dWE(1).Potential/dt < 1E-06 V/s	
29.0737499265958	0.0299957275390625	27.7999999298117	279	4.57341375295073E-05		
29.1737499263434	0.029998779296875	27.8999999295593	280	4.57465539511759E-05		
29.2737499260909	0.02999267578125	27.9999999293068	281	-0.000147484213812277	dWE(1).Potential/dt < 1E-06 V/s	
29.3737499258384	0.02999267578125	28.0999999290543	282	8.13479055068456E-05		
29.4737499255859	0.02999267578125	28.1999999288018	283	-2.03649160539499E-05	dWE(1).Potential/dt < 1E-06 V/s	
29.5737499253335	0.0299896240234375	28.2999999285494	284	-5.59476393391378E-05	dWE(1).Potential/dt < 1E-06 V/s	
29.673749925081	0.0299835205078125	28.3999999282969	285	-7.62628842494451E-05	dWE(1).Potential/dt < 1E-06 V/s	
29.7737499248285	0.0299835205078125	28.4999999280444	286	6.10264505667146E-05		
29.873749924576	0.02998046875	28.5999999277919	287	-7.62753043090925E-05	dWE(1).Potential/dt < 1E-06 V/s	
29.9737499243236	0.02998046875	28.6999999275395	288	3.55640950147063E-05		
30.0737499240711	0.0299835205078125	28.799999927287	289	4.57465539511759E-05		
30.1737499238186	0.02998046875	28.8999999270345	290	-9.15055279619992E-05	dWE(1).Potential/dt < 1E-06 V/s	
30.2737499235661	0.02998046875	28.999999926782	291	4.57341375295073E-05		
30.3737499233137	0.0299774169921875	29.0999999265296	292	-6.61611411487684E-05	dWE(1).Potential/dt < 1E-06 V/s	
30.4737499230612	0.0299774169921875	29.1999999262771	293	3.56013479176909E-05		
30.5737499228087	0.0299774169921875	29.2999999260246	294	-1.01948753581382E-05	dWE(1).Potential/dt < 1E-06 V/s	
30.6737499225562	0.029974365234375	29.3999999257721	295	-5.59476393391378E-05	dWE(1).Potential/dt < 1E-06 V/s	
30.7737499223038	0.029974365234375	29.4999999255197	296	3.56448108504992E-05		
30.8737499220513	0.02996826171875	29.5999999252672	297	-0.000122059107525274	dWE(1).Potential/dt < 1E-06 V/s	
30.9737499217988	0.0299713134765625	29.6999999250147	298	0.000127125502331182		
31.0737499215463	0.0299713134765625	29.7999999247622	299	-5.59103864361532E-05	dWE(1).Potential/dt < 1E-06 V/s	
31.1737499212938	0.0299652099609375	29.8999999245098	300	-0.000101675563200843	dWE(1).Potential/dt < 1E-06 V/s	
31.2737499210414	0.02996826171875	29.9999999242573	301	0.000127069622976705		
31.3737499207889	0.0299652099609375	30.0999999240048	302	-0.000111845605715644	dWE(1).Potential/dt < 1E-06 V/s	
31.4737499205364	0.0299652099609375	30.1999999237523	303	4.57341375295073E-05		
31.5737499202839	0.0299591064453125	30.2999999234999	304	-0.000122090146760456	dWE(1).Potential/dt < 1E-06 V/s	
31.6737499200315	0.0299652099609375	30.3999999232474	305	0.000183172480319627		
31.773749919779	0.029962158203125	30.4999999229949	306	-0.000147583545185626	dWE(1).Potential/dt < 1E-06 V/s	
31.8737499195265	0.029962158203125	30.5999999227424	307	5.59476393391378E-05		
31.973749919274	0.0299591064453125	30.69999992249	308	-6.61238882457837E-05	dWE(1).Potential/dt < 1E-06 V/s	
32.0737499190216	0.0299560546875	30.7999999222375	309	-2.03338713617995E-05	dWE(1).Potential/dt < 1E-06 V/s	
32.1737499187691	0.0299530029296875	30.899999921985	310	-3.04666591546265E-05	dWE(1).Potential/dt < 1E-06 V/s	
32.2737499185166	0.0299530029296875	30.9999999217325	311	2.54002643487183E-05		
32.3737499182641	0.0299530029296875	31.09999992148	312	-1.01700397863169E-05	dWE(1).Potential/dt < 1E-06 V/s	
32.4737499180117	0.0299530029296875	31.1999999212276	313	0	dWE(1).Potential/dt < 1E-06 V/s	
32.5737499177592	0.029949951171875	31.2999999209751	314	-5.59290128876455E-05	dWE(1).Potential/dt < 1E-06 V/s	
32.6737499175067	0.029949951171875	31.3999999207226	315	3.55640950147063E-05		
32.7737499172542	0.0299468994140625	31.4999999204701	316	-6.61611411487684E-05	dWE(1).Potential/dt < 1E-06 V/s	
32.8737499170018	0.029949951171875	31.5999999202177	317	9.15800337679684E-05		
32.9737499167493	0.0299468994140625	31.6999999199652	318	-0.000101787321909796	dWE(1).Potential/dt < 1E-06 V/s	
33.0737499164968	0.0299468994140625	31.7999999197127	319	4.57775968243368E-05		
33.1737499162443	0.02994384765625	31.8999999194602	320	-6.61238882457837E-05	dWE(1).Potential/dt < 1E-06 V/s	
33.2737499159919	0.0299407958984375	31.9999999192078	321	-2.03338713617995E-05	dWE(1).Potential/dt < 1E-06 V/s	
33.3737499157394	0.02994384765625	32.0999999189553	322	8.14410377643071E-05		
33.4737499154869	0.029937744140625	32.1999999187028	323	-0.00015768529556226	dWE(1).Potential/dt < 1E-06 V/s	
33.5737499152344	0.02994384765625	32.2999999184503	324	0.000193280429812148		
33.673749914982	0.0299346923828125	32.3999999181979	325	-0.000259360851487145	dWE(1).Potential/dt < 1E-06 V/s	
33.7737499147295	0.029937744140625	32.4999999179454	326	0.000183035881491378		
33.873749914477	0.0299346923828125	32.5999999176929	327	-0.00012202185462229	dWE(1).Potential/dt < 1E-06 V/s	
33.9737499142245	0.029931640625	32.6999999174404	328	-1.02445455922862E-05	dWE(1).Potential/dt < 1E-06 V/s	
34.0737499139721	0.029931640625	32.799999917188	329	2.54313090408687E-05		
34.1737499137196	0.029931640625	32.8999999169355	330	-1.01948753581382E-05	dWE(1).Potential/dt < 1E-06 V/s	
34.2737499134671	0.029931640625	32.999999916683	331	-1.86264479395959E-08	dWE(1).Potential/dt < 1E-06 V/s	
34.3737499132146	0.029925537109375	33.0999999164305	332	-0.000111926317913458	dWE(1).Potential/dt < 1E-06 V/s	
34.4737499129621	0.029925537109375	33.1999999161781	333	7.12585751898587E-05		
34.5737499127097	0.02991943359375	33.2999999159256	334	-0.000132191897137091	dWE(1).Potential/dt < 1E-06 V/s	
34.6737499124572	0.0299224853515625	33.3999999156731	335	0.000127069622976705		
34.7737499122047	0.029925537109375	33.4999999154206	336	1.24176313676116E-08	dWE(1).Potential/dt < 1E-06 V/s	
34.8737499119522	0.02991943359375	33.5999999151682	337	-0.000137252078275196	dWE(1).Potential/dt < 1E-06 V/s	
34.9737499116998	0.02991943359375	33.6999999149157	338	8.13106526038609E-05		
35.0737499114473	0.0299224853515625	33.7999999146632	339	3.55765150743537E-05		
35.1737499111948	0.02991943359375	33.8999999144107	340	-9.15055279619992E-05	dWE(1).Potential/dt < 1E-06 V/s	
35.2737499109423	0.0299163818359375	33.9999999141583	341	-1.02445455922862E-05	dWE(1).Potential/dt < 1E-06 V/s	
35.3737499106899	0.029913330078125	34.0999999139058	342	-3.04977020277875E-05	dWE(1).Potential/dt < 1E-06 V/s	
35.4737499104374	0.029913330078125	34.1999999136533	343	2.54685619438533E-05		
35.5737499101849	0.029913330078125	34.2999999134008	344	-1.01514133348246E-05	dWE(1).Potential/dt < 1E-06 V/s	
35.6737499099324	0.0299163818359375	34.3999999131483	345	5.59476393391378E-05		
35.77374990968	0.0299072265625	34.4999999128959	346	-0.000203481511562131	dWE(1).Potential/dt < 1E-06 V/s	
35.8737499094275	0.0299072265625	34.5999999126434	347	0.000116992712719366		
35.973749909175	0.0299102783203125	34.6999999123909	348	2.54126825893763E-05		
36.0737499089225	0.0299102783203125	34.7999999121384	349	-3.55640950147063E-05	dWE(1).Potential/dt < 1E-06 V/s	
36.1737499086701	0.0299041748046875	34.899999911886	350	-0.000101675563200843	dWE(1).Potential/dt < 1E-06 V/s	
36.2737499084176	0.0299041748046875	34.9999999116335	351	7.11406100890599E-05		
36.3737499081651	0.0299041748046875	35.099999911381	352	-2.03524978132918E-05	dWE(1).Potential/dt < 1E-06 V/s	
36.4737499079126	0.0298980712890625	35.1999999111285	353	-0.000111920111521613	dWE(1).Potential/dt < 1E-06 V/s	
36.5737499076602	0.0298980712890625	35.2999999108761	354	7.12647888576612E-05		
36.6737499074077	0.029901123046875	35.3999999106236	355	3.56013479176909E-05		
36.7737499071552	0.02989501953125	35.4999999103711	356	-0.000147552505950443	dWE(1).Potential/dt < 1E-06 V/s	
36.8737499069027	0.02989501953125	35.5999999101186	357	8.14286177046597E-05		
36.9737499066503	0.02989501953125	35.6999999098662	358	-2.03338713617995E-05	dWE(1).Potential/dt < 1E-06 V/s	
37.0737499063978	0.0298919677734375	35.7999999096137	359	-5.59165928279981E-05	dWE(1).Potential/dt < 1E-06 V/s	
37.1737499061453	0.0298919677734375	35.8999999093612	360	3.55765150743537E-05		
37.2737499058928	0.029888916015625	35.9999999091087	361	-6.60990554024465E-05	dWE(1).Potential/dt < 1E-06 V/s	
37.3737499056404	0.029888916015625	36.0999999088563	362	3.55640950147063E-05		
37.4737499053879	0.029888916015625	36.1999999086038	363	-1.01824580269749E-05	dWE(1).Potential/dt < 1E-06 V/s	
37.5737499051354	0.0298858642578125	36.2999999083513	364	-5.59910986339673E-05	dWE(1).Potential/dt < 1E-06 V/s	
37.6737499048829	0.0298828125	36.3999999080988	365	-2.03276631509652E-05	dWE(1).Potential/dt < 1E-06 V/s	
37.7737499046304	0.0298828125	36.4999999078464	366	2.54685619438533E-05		
37.873749904378	0.0298828125	36.5999999075939	367	-1.01514133348246E-05	dWE(1).Potential/dt < 1E-06 V/s	
37.9737499041255	0.0298797607421875	36.6999999073414	368	-5.59600557608064E-05	dWE(1).Potential/dt < 1E-06 V/s	
38.073749903873	0.0298828125	36.7999999070889	369	9.16110730031505E-05		
38.1737499036205	0.0298797607421875	36.8999999068365	370	-0.000101756282674614	dWE(1).Potential/dt < 1E-06 V/s	
38.2737499033681	0.0298736572265625	36.999999906584	371	-6.60493824398145E-05	dWE(1).Potential/dt < 1E-06 V/s	
38.3737499031156	0.029876708984375	37.0999999063315	372	0.00011689337407006		
38.4737499028631	0.02987060546875	37.199999906079	373	-0.000167824284289964	dWE(1).Potential/dt < 1E-06 V/s	
38.5737499026106	0.029876708984375	37.2999999058266	374	0.000193255604244769		
38.6737499023582	0.02987060546875	37.3999999055741	375	-0.000203450472326949	dWE(1).Potential/dt < 1E-06 V/s	
38.7737499021057	0.0298736572265625	37.4999999053216	376	0.000147502840263769		
38.8737499018532	0.02987060546875	37.5999999050691	377	-0.000111957364424597	dWE(1).Potential/dt < 1E-06 V/s	
38.9737499016007	0.0298675537109375	37.6999999048167	378	-1.01514133348246E-05	dWE(1).Potential/dt < 1E-06 V/s	
39.0737499013483	0.0298675537109375	37.7999999045642	379	2.54685619438533E-05		
39.1737499010958	0.029864501953125	37.8999999043117	380	-6.61300946376286E-05	dWE(1).Potential/dt < 1E-06 V/s	
39.2737499008433	0.029864501953125	37.9999999040592	381	3.56323944288306E-05		
39.3737499005908	0.0298614501953125	38.0999999038067	382	-6.6092841734644E-05	dWE(1).Potential/dt < 1E-06 V/s	
39.4737499003384	0.029864501953125	38.1999999035543	383	9.15055279619992E-05		
39.5737499000859	0.0298583984375	38.2999999033018	384	-0.000157592163304798	dWE(1).Potential/dt < 1E-06 V/s	
39.6737498998334	0.0298583984375	38.3999999030493	385	8.13106526038609E-05		
39.7737498995809	0.0298553466796875	38.4999999027968	386	-7.63311763876118E-05	dWE(1).Potential/dt < 1E-06 V/s	
39.8737498993285	0.0298553466796875	38.5999999025444	387	3.56013479176909E-05		
39.973749899076	0.0298553466796875	38.6999999022919	388	-1.01948753581382E-05	dWE(1).Potential/dt < 1E-06 V/s	
40.0737498988235	0.0298553466796875	38.7999999020394	389	-1.86264479395959E-08	dWE(1).Potential/dt < 1E-06 V/s	
40.173749898571	0.0298583984375	38.8999999017869	390	5.59600557608064E-05		
40.2737498983186	0.0298492431640625	38.9999999015345	391	-0.000203518764465116	dWE(1).Potential/dt < 1E-06 V/s	
40.3737498980661	0.0298492431640625	39.099999901282	392	0.000117054798465688		
40.4737498978136	0.0298553466796875	39.1999999010295	393	8.139757119352E-05		
40.5737498975611	0.029840087890625	39.299999900777	394	-0.000351009191945195	dWE(1).Potential/dt < 1E-06 V/s	
40.6737498973087	0.02984619140625	39.3999999005246	395	0.000310254516080022		
40.7737498970562	0.029840087890625	39.4999999002721	396	-0.00023396679898724	dWE(1).Potential/dt < 1E-06 V/s	
40.8737498968037	0.0298370361328125	39.5999999000196	397	3.5595141525846E-05		
40.9737498965512	0.0298431396484375	39.6999998997671	398	0.000127206221804954		
41.0737498962988	0.029833984375	39.7999998995147	399	-0.000249314995016903	dWE(1).Potential/dt < 1E-06 V/s	
41.1737498960463	0.0298370361328125	39.8999998992622	400	0.000183203519554809		
41.2737498957938	0.029833984375	39.9999998990097	401	-0.000122102574096061	dWE(1).Potential/dt < 1E-06 V/s	
41.3737498955413	0.029833984375	40.0999998987572	402	4.58086433354765E-05		
41.4737498952888	0.029827880859375	40.1999998985048	403	-0.00012202185462229	dWE(1).Potential/dt < 1E-06 V/s	
41.5737498950364	0.029827880859375	40.2999998982523	404	7.11406100890599E-05		
41.6737498947839	0.029827880859375	40.3999998979998	405	-2.03524978132918E-05	dWE(1).Potential/dt < 1E-06 V/s	
41.7737498945314	0.0298248291015625	40.4999998977473	406	-5.59910986339673E-05	dWE(1).Potential/dt < 1E-06 V/s	
41.8737498942789	0.0298248291015625	40.5999998974949	407	3.56013479176909E-05		
41.9737498940265	0.0298248291015625	40.6999998972424	408	-1.01948753581382E-05	dWE(1).Potential/dt < 1E-06 V/s	
42.073749893774	0.02982177734375	40.7999998969899	409	-5.59476393391378E-05	dWE(1).Potential/dt < 1E-06 V/s	
42.1737498935215	0.0298187255859375	40.8999998967374	410	-2.03338713617995E-05	dWE(1).Potential/dt < 1E-06 V/s	
42.273749893269	0.0298187255859375	40.999999896485	411	2.5462353733019E-05		
42.3737498930166	0.0298187255859375	41.0999998962325	412	-1.01638315754826E-05	dWE(1).Potential/dt < 1E-06 V/s	
42.4737498927641	0.0298187255859375	41.19999989598	413	1.24176313676116E-08	dWE(1).Potential/dt < 1E-06 V/s	
42.5737498925116	0.0298126220703125	41.2999998957275	414	-0.000111845605715644	dWE(1).Potential/dt < 1E-06 V/s	
42.6737498922591	0.029815673828125	41.399999895475	415	0.000127069622976705		
42.7737498920067	0.029815673828125	41.4999998952226	416	-5.59165928279981E-05	dWE(1).Potential/dt < 1E-06 V/s	
42.8737498917542	0.0298065185546875	41.5999998949701	417	-0.000157666669110768	dWE(1).Potential/dt < 1E-06 V/s	
42.9737498915017	0.0298095703125	41.6999998947176	418	0.00016277031681966		
43.0737498912492	0.0298065185546875	41.7999998944651	419	-0.000122090146760456	dWE(1).Potential/dt < 1E-06 V/s	
43.1737498909968	0.0298065185546875	41.8999998942127	420	4.58148497273214E-05		
43.2737498907443	0.029803466796875	41.9999998939602	421	-6.61300946376286E-05	dWE(1).Potential/dt < 1E-06 V/s	
43.3737498904918	0.0298095703125	42.0999998937077	422	0.000147540093166754		
43.4737498902393	0.0298004150390625	42.1999998934552	423	-0.000249277742113918	dWE(1).Potential/dt < 1E-06 V/s	
43.5737498899869	0.029803466796875	42.2999998932028	424	0.000183097974513657		
43.6737498897344	0.02979736328125	42.3999998929503	425	-0.000177938447450288	dWE(1).Potential/dt < 1E-06 V/s	
43.7737498894819	0.02979736328125	42.4999998926978	426	8.13106526038609E-05		
43.8737498892294	0.02979736328125	42.5999998924453	427	-2.03524978132918E-05	dWE(1).Potential/dt < 1E-06 V/s	
43.973749888977	0.029791259765625	42.6999998921929	428	-0.000111920111521613	dWE(1).Potential/dt < 1E-06 V/s	
44.0737498887245	0.0297882080078125	42.7999998919404	429	1.5286104826373E-05		
44.173749888472	0.0297943115234375	42.8999998916879	430	0.000127193794469349		
44.2737498882195	0.0297943115234375	42.9999998914354	431	-8.14410377643071E-05	dWE(1).Potential/dt < 1E-06 V/s	
44.3737498879671	0.0297882080078125	43.099999891183	432	-9.15800337679684E-05	dWE(1).Potential/dt < 1E-06 V/s	
44.4737498877146	0.0297882080078125	43.1999998909305	433	7.12585751898587E-05		
44.5737498874621	0.0297882080078125	43.299999890678	434	-2.03338713617995E-05	dWE(1).Potential/dt < 1E-06 V/s	
44.6737498872096	0.0297882080078125	43.3999998904255	435	1.24176313676116E-08	dWE(1).Potential/dt < 1E-06 V/s	
44.7737498869571	0.0297882080078125	43.4999998901731	436	1.24176313676116E-08	dWE(1).Potential/dt < 1E-06 V/s	
44.8737498867047	0.02978515625	43.5999998899206	437	-5.59165928279981E-05	dWE(1).Potential/dt < 1E-06 V/s	
44.9737498864522	0.02978515625	43.6999998896681	438	3.55765150743537E-05		
45.0737498861997	0.029779052734375	43.7999998894156	439	-0.000122077733976766	dWE(1).Potential/dt < 1E-06 V/s	
45.1737498859472	0.029779052734375	43.8999998891632	440	7.11778629920445E-05		
45.2737498856948	0.029779052734375	43.9999998889107	441	-2.03649160539499E-05	dWE(1).Potential/dt < 1E-06 V/s	
45.3737498854423	0.029779052734375	44.0999998886582	442	-1.86264479395959E-08	dWE(1).Potential/dt < 1E-06 V/s	
45.4737498851898	0.02977294921875	44.1999998884057	443	-0.000111926317913458	dWE(1).Potential/dt < 1E-06 V/s	
45.5737498849373	0.02977294921875	44.2999998881533	444	7.12585751898587E-05		
45.6737498846849	0.0297760009765625	44.3999998879008	445	3.56448108504992E-05		
45.7737498844324	0.0297698974609375	44.4999998876483	446	-0.000147509039379656	dWE(1).Potential/dt < 1E-06 V/s	
45.8737498841799	0.0297698974609375	44.5999998873958	447	8.13727383501828E-05		
45.9737498839274	0.0297698974609375	44.6999998871433	448	-2.03462896024575E-05	dWE(1).Potential/dt < 1E-06 V/s	
46.073749883675	0.029766845703125	44.7999998868909	449	-5.59290128876455E-05	dWE(1).Potential/dt < 1E-06 V/s	
46.1737498834225	0.029766845703125	44.8999998866384	450	3.55640950147063E-05		
46.27374988317	0.029766845703125	44.9999998863859	451	-1.01824580269749E-05	dWE(1).Potential/dt < 1E-06 V/s	
46.3737498829175	0.0297607421875	45.0999998861334	452	-0.000111920111521613	dWE(1).Potential/dt < 1E-06 V/s	
46.4737498826651	0.029766845703125	45.199999885881	453	0.000183172480319627		
46.5737498824126	0.0297607421875	45.2999998856285	454	-0.000203512565349229	dWE(1).Potential/dt < 1E-06 V/s	
46.6737498821601	0.0297576904296875	45.399999885376	455	3.56323944288306E-05		
46.7737498819076	0.029754638671875	45.4999998851235	456	-4.06429062422831E-05	dWE(1).Potential/dt < 1E-06 V/s	
46.8737498816552	0.02974853515625	45.5999998848711	457	-8.65074252942577E-05	dWE(1).Potential/dt < 1E-06 V/s	
46.9737498814027	0.0297515869140625	45.6999998846186	458	0.000116986506327521		
47.0737498811502	0.0297515869140625	45.7999998843661	459	-5.59786822122987E-05	dWE(1).Potential/dt < 1E-06 V/s	
47.1737498808977	0.0297515869140625	45.8999998841136	460	1.01638315754826E-05		
47.2737498806453	0.0297515869140625	45.9999998838612	461	-1.24176313676116E-08	dWE(1).Potential/dt < 1E-06 V/s	
47.3737498803928	0.02974853515625	46.0999998836087	462	-5.59910986339673E-05	dWE(1).Potential/dt < 1E-06 V/s	
47.4737498801403	0.0297454833984375	46.1999998833562	463	-2.03276631509652E-05	dWE(1).Potential/dt < 1E-06 V/s	
47.5737498798878	0.0297454833984375	46.2999998831037	464	2.54685619438533E-05		
47.6737498796354	0.0297393798828125	46.3999998828513	465	-0.000122059107525274	dWE(1).Potential/dt < 1E-06 V/s	
47.7737498793829	0.029742431640625	46.4999998825988	466	0.000127125502331182		
47.8737498791304	0.0297393798828125	46.5999998823463	467	-0.000111839399323799	dWE(1).Potential/dt < 1E-06 V/s	
47.9737498788779	0.029742431640625	46.6999998820938	468	0.000101675563200843		
48.0737498786254	0.0297393798828125	46.7999998818414	469	-0.000101663150417153	dWE(1).Potential/dt < 1E-06 V/s	
48.173749878373	0.0297393798828125	46.8999998815889	470	4.57465539511759E-05		
48.2737498781205	0.029736328125	46.9999998813364	471	-6.60990554024465E-05	dWE(1).Potential/dt < 1E-06 V/s	
48.373749877868	0.0297332763671875	47.0999998810839	472	-2.04145853786031E-05	dWE(1).Potential/dt < 1E-06 V/s	
48.4737498776155	0.029730224609375	47.1999998808315	473	-3.04977020277875E-05	dWE(1).Potential/dt < 1E-06 V/s	
48.5737498773631	0.02972412109375	47.299999880579	474	-8.6439133156091E-05	dWE(1).Potential/dt < 1E-06 V/s	
48.6737498771106	0.0297271728515625	47.3999998803265	475	0.000116955459816381		
48.7737498768581	0.029730224609375	47.499999880074	476	6.82969698573288E-08	dWE(1).Potential/dt < 1E-06 V/s	
48.8737498766056	0.02972412109375	47.5999998798216	477	-0.000137338996864855	dWE(1).Potential/dt < 1E-06 V/s	
48.9737498763532	0.02972412109375	47.6999998795691	478	8.13727383501828E-05		
49.0737498761007	0.0297271728515625	47.7999998793166	479	3.55827214661986E-05		
49.1737498758482	0.02972412109375	47.8999998790641	480	-9.14931079023518E-05	dWE(1).Potential/dt < 1E-06 V/s	
49.2737498755957	0.02972412109375	47.9999998788117	481	4.57465539511759E-05		
49.3737498753433	0.0297210693359375	48.0999998785592	482	-6.60990554024465E-05	dWE(1).Potential/dt < 1E-06 V/s	
49.4737498750908	0.0297210693359375	48.1999998783067	483	3.55640950147063E-05		
49.5737498748383	0.0297210693359375	48.2999998780542	484	-1.01824580269749E-05	dWE(1).Potential/dt < 1E-06 V/s	
49.6737498745858	0.0297149658203125	48.3999998778017	485	-0.000111920111521613	dWE(1).Potential/dt < 1E-06 V/s	
49.7737498743334	0.0297149658203125	48.4999998775493	486	7.12647888576612E-05		
49.8737498740809	0.0297149658203125	48.5999998772968	487	-2.03276631509652E-05	dWE(1).Potential/dt < 1E-06 V/s	
49.9737498738284	0.029718017578125	48.6999998770443	488	5.59476393391378E-05		
50.0737498735759	0.0297149658203125	48.7999998767918	489	-9.15738201001659E-05	dWE(1).Potential/dt < 1E-06 V/s	
50.1737498733235	0.0297088623046875	48.8999998765394	490	-6.6092841734644E-05	dWE(1).Potential/dt < 1E-06 V/s	
50.273749873071	0.0297088623046875	48.9999998762869	491	6.10264505667146E-05		
50.3737498728185	0.029705810546875	49.0999998760344	492	-7.62753043090925E-05	dWE(1).Potential/dt < 1E-06 V/s	
50.473749872566	0.0297027587890625	49.1999998757819	493	-2.04145853786031E-05	dWE(1).Potential/dt < 1E-06 V/s	
50.5737498723136	0.0297088623046875	49.2999998755295	494	0.000137338996864855		
50.6737498720611	0.029705810546875	49.399999875277	495	-0.000137301743961871	dWE(1).Potential/dt < 1E-06 V/s	
50.7737498718086	0.0297027587890625	49.4999998750245	496	-6.82969698573288E-08	dWE(1).Potential/dt < 1E-06 V/s	
50.8737498715561	0.02969970703125	49.599999874772	497	-3.04977020277875E-05	dWE(1).Potential/dt < 1E-06 V/s	
50.9737498713037	0.02969970703125	49.6999998745196	498	2.54685619438533E-05		
51.0737498710512	0.02969970703125	49.7999998742671	499	-1.01514133348246E-05	dWE(1).Potential/dt < 1E-06 V/s	
51.1737498707987	0.0296966552734375	49.8999998740146	500	-5.59600557608064E-05	dWE(1).Potential/dt < 1E-06 V/s	
51.2737498705462	0.029693603515625	49.9999998737621	501	-2.02966184588149E-05	dWE(1).Potential/dt < 1E-06 V/s	
51.3737498702938	0.029693603515625	50.0999998735097	502	2.54002643487183E-05		
51.4737498700413	0.0296905517578125	50.1999998732572	503	-6.60990554024465E-05	dWE(1).Potential/dt < 1E-06 V/s	
51.5737498697888	0.029693603515625	50.2999998730047	504	9.14931079023518E-05		
51.6737498695363	0.0296905517578125	50.3999998727522	505	-0.000101675563200843	dWE(1).Potential/dt < 1E-06 V/s	
51.7737498692838	0.0296875	50.4999998724998	506	-1.02445455922862E-05	dWE(1).Potential/dt < 1E-06 V/s	
51.8737498690314	0.0296875	50.5999998722473	507	2.54313090408687E-05		
51.9737498687789	0.0296875	50.6999998719948	508	-1.01948753581382E-05	dWE(1).Potential/dt < 1E-06 V/s	
52.0737498685264	0.0296844482421875	50.7999998717423	509	-5.59476393391378E-05	dWE(1).Potential/dt < 1E-06 V/s	
52.1737498682739	0.0296844482421875	50.8999998714899	510	3.56448108504992E-05		
52.2737498680215	0.0296844482421875	50.9999998712374	511	-1.01514133348246E-05	dWE(1).Potential/dt < 1E-06 V/s	
52.373749867769	0.029681396484375	51.0999998709849	512	-5.59600557608064E-05	dWE(1).Potential/dt < 1E-06 V/s	
52.4737498675165	0.029681396484375	51.1999998707324	513	3.56323944288306E-05		
52.573749867264	0.029681396484375	51.29999987048	514	-1.01638315754826E-05	dWE(1).Potential/dt < 1E-06 V/s	
52.6737498670116	0.02967529296875	51.3999998702275	515	-0.000111845605715644	dWE(1).Potential/dt < 1E-06 V/s	
52.7737498667591	0.02967529296875	51.499999869975	516	7.11406100890599E-05		
52.8737498665066	0.02967529296875	51.5999998697225	517	-2.03524978132918E-05	dWE(1).Potential/dt < 1E-06 V/s	
52.9737498662541	0.02967529296875	51.69999986947	518	-1.24176313676116E-08	dWE(1).Potential/dt < 1E-06 V/s	
53.0737498660017	0.029669189453125	51.7999998692176	519	-0.000111920111521613	dWE(1).Potential/dt < 1E-06 V/s	
53.1737498657492	0.029669189453125	51.8999998689651	520	7.12647888576612E-05		
53.2737498654967	0.0296661376953125	51.9999998687126	521	-7.63063435442746E-05	dWE(1).Potential/dt < 1E-06 V/s	
53.3737498652442	0.029669189453125	52.0999998684601	522	9.16110730031505E-05		
53.4737498649918	0.0296630859375	52.1999998682077	523	-0.00015768529556226	dWE(1).Potential/dt < 1E-06 V/s	
53.5737498647393	0.0296630859375	52.2999998679552	524	8.13727383501828E-05		
53.6737498644868	0.0296630859375	52.3999998677027	525	-2.03462896024575E-05	dWE(1).Potential/dt < 1E-06 V/s	
53.7737498642343	0.0296600341796875	52.4999998674502	526	-5.59290128876455E-05	dWE(1).Potential/dt < 1E-06 V/s	
53.8737498639819	0.0296600341796875	52.5999998671978	527	3.55640950147063E-05		
53.9737498637294	0.029656982421875	52.6999998669453	528	-6.61611411487684E-05	dWE(1).Potential/dt < 1E-06 V/s	
54.0737498634769	0.029656982421875	52.7999998666928	529	3.56013479176909E-05		
54.1737498632244	0.029656982421875	52.8999998664403	530	-1.01948753581382E-05	dWE(1).Potential/dt < 1E-06 V/s	
54.273749862972	0.029656982421875	52.9999998661879	531	-1.86264479395959E-08	dWE(1).Potential/dt < 1E-06 V/s	
54.3737498627195	0.0296539306640625	53.0999998659354	532	-5.59476393391378E-05	dWE(1).Potential/dt < 1E-06 V/s	
54.473749862467	0.0296539306640625	53.1999998656829	533	3.56448108504992E-05		
54.5737498622145	0.02965087890625	53.2999998654304	534	-6.61300946376286E-05	dWE(1).Potential/dt < 1E-06 V/s	
54.6737498619621	0.02965087890625	53.399999865178	535	3.56323944288306E-05		
54.7737498617096	0.02965087890625	53.4999998649255	536	-1.01638315754826E-05	dWE(1).Potential/dt < 1E-06 V/s	
54.8737498614571	0.029644775390625	53.599999864673	537	-0.000111845605715644	dWE(1).Potential/dt < 1E-06 V/s	
54.9737498612046	0.0296478271484375	53.6999998644205	538	0.000127069622976705		
55.0737498609521	0.0296478271484375	53.7999998641681	539	-5.59165928279981E-05	dWE(1).Potential/dt < 1E-06 V/s	
55.1737498606997	0.0296478271484375	53.8999998639156	540	1.01700397863169E-05		
55.2737498604472	0.0296417236328125	53.9999998636631	541	-0.000111907691461965	dWE(1).Potential/dt < 1E-06 V/s	
55.3737498601947	0.0296417236328125	54.0999998634106	542	7.11778629920445E-05		
55.4737498599422	0.029644775390625	54.1999998631582	543	3.56137679773383E-05		
55.5737498596898	0.0296356201171875	54.2999998629057	544	-0.000203518764465116	dWE(1).Potential/dt < 1E-06 V/s	
55.6737498594373	0.0296356201171875	54.3999998626532	545	0.000117054798465688		
55.7737498591848	0.0296356201171875	54.4999998624007	546	-3.05101202684455E-05	dWE(1).Potential/dt < 1E-06 V/s	
55.8737498589323	0.0296295166015625	54.5999998621483	547	-0.000111845605715644	dWE(1).Potential/dt < 1E-06 V/s	
55.9737498586799	0.029632568359375	54.6999998618958	548	0.000127069622976705		
56.0737498584274	0.0296295166015625	54.7999998616433	549	-0.000111845605715644	dWE(1).Potential/dt < 1E-06 V/s	
56.1737498581749	0.02962646484375	54.8999998613908	550	-1.02445455922862E-05	dWE(1).Potential/dt < 1E-06 V/s	
56.2737498579224	0.0296295166015625	54.9999998611383	551	8.14099912531674E-05		
56.37374985767	0.02962646484375	55.0999998608859	552	-0.000101787321909796	dWE(1).Potential/dt < 1E-06 V/s	
56.4737498574175	0.0296234130859375	55.1999998606334	553	-1.01514133348246E-05	dWE(1).Potential/dt < 1E-06 V/s	
56.573749857165	0.0296234130859375	55.2999998603809	554	2.54685619438533E-05		
56.6737498569125	0.0296234130859375	55.3999998601284	555	-1.01514133348246E-05	dWE(1).Potential/dt < 1E-06 V/s	
56.7737498566601	0.029620361328125	55.499999859876	556	-5.59600557608064E-05	dWE(1).Potential/dt < 1E-06 V/s	
56.8737498564076	0.029620361328125	55.5999998596235	557	3.56323944288306E-05		
56.9737498561551	0.029620361328125	55.699999859371	558	-1.01638315754826E-05	dWE(1).Potential/dt < 1E-06 V/s	
57.0737498559026	0.029620361328125	55.7999998591185	559	1.24176313676116E-08	dWE(1).Potential/dt < 1E-06 V/s	
57.1737498556502	0.0296173095703125	55.8999998588661	560	-5.59165928279981E-05	dWE(1).Potential/dt < 1E-06 V/s	
57.2737498553977	0.0296142578125	55.9999998586136	561	-2.03524978132918E-05	dWE(1).Potential/dt < 1E-06 V/s	
57.3737498551452	0.0296142578125	56.0999998583611	562	2.5394056137884E-05		
57.4737498548927	0.0296112060546875	56.1999998581086	563	-6.61611411487684E-05	dWE(1).Potential/dt < 1E-06 V/s	
57.5737498546403	0.0296112060546875	56.2999998578562	564	3.56013479176909E-05		
57.6737498543878	0.0296112060546875	56.3999998576037	565	-1.01948753581382E-05	dWE(1).Potential/dt < 1E-06 V/s	
57.7737498541353	0.0296112060546875	56.4999998573512	566	-1.86264479395959E-08	dWE(1).Potential/dt < 1E-06 V/s	
57.8737498538828	0.0296051025390625	56.5999998570987	567	-0.000111926317913458	dWE(1).Potential/dt < 1E-06 V/s	
57.9737498536304	0.0296051025390625	56.6999998568463	568	7.12585751898587E-05		
58.0737498533779	0.0296051025390625	56.7999998565938	569	-2.03338713617995E-05	dWE(1).Potential/dt < 1E-06 V/s	
58.1737498531254	0.02960205078125	56.8999998563413	570	-5.59165928279981E-05	dWE(1).Potential/dt < 1E-06 V/s	
58.2737498528729	0.0295989990234375	56.9999998560888	571	-2.03524978132918E-05	dWE(1).Potential/dt < 1E-06 V/s	
58.3737498526204	0.0295989990234375	57.0999998558364	572	2.5394056137884E-05		
58.473749852368	0.029595947265625	57.1999998555839	573	-6.61611411487684E-05	dWE(1).Potential/dt < 1E-06 V/s	
58.5737498521155	0.029595947265625	57.2999998553314	574	3.56013479176909E-05		
58.673749851863	0.029595947265625	57.3999998550789	575	-1.01948753581382E-05	dWE(1).Potential/dt < 1E-06 V/s	
58.7737498516105	0.0295928955078125	57.4999998548265	576	-5.59476393391378E-05	dWE(1).Potential/dt < 1E-06 V/s	
58.8737498513581	0.0295928955078125	57.599999854574	577	3.56448108504992E-05		
58.9737498511056	0.0295989990234375	57.6999998543215	578	0.000101756282674614		
59.0737498508531	0.029595947265625	57.799999854069	579	-0.000127237261040136	dWE(1).Potential/dt < 1E-06 V/s	
59.1737498506006	0.02958984375	57.8999998538166	580	-5.59600557608064E-05	dWE(1).Potential/dt < 1E-06 V/s	
59.2737498503482	0.02958984375	57.9999998535641	581	6.10823262832128E-05		
59.3737498500957	0.0295867919921875	58.0999998533116	582	-7.62628842494451E-05	dWE(1).Potential/dt < 1E-06 V/s	
59.4737498498432	0.029583740234375	58.1999998530591	583	-2.03524978132918E-05	dWE(1).Potential/dt < 1E-06 V/s	
59.5737498495907	0.0295806884765625	58.2999998528067	584	-3.05846260744147E-05	dWE(1).Potential/dt < 1E-06 V/s	
59.6737498493383	0.029583740234375	58.3999998525542	585	8.14099912531674E-05		
59.7737498490858	0.02957763671875	58.4999998523017	586	-0.000157716334797442	dWE(1).Potential/dt < 1E-06 V/s	
59.8737498488333	0.0295806884765625	58.5999998520492	587	0.000137370050651953		
59.9737498485808	0.0295806884765625	58.6999998517967	588	-5.59910986339673E-05	dWE(1).Potential/dt < 1E-06 V/s	
60.0737498483284	0.02957763671875	58.7999998515443	589	-4.57775968243368E-05	dWE(1).Potential/dt < 1E-06 V/s	
60.1737498480759	0.02957763671875	58.8999998512918	590	3.56448108504992E-05		
60.2737498478234	0.0295745849609375	58.9999998510393	591	-6.61300946376286E-05	dWE(1).Potential/dt < 1E-06 V/s	
60.3737498475709	0.029571533203125	59.0999998507868	592	-2.02966184588149E-05	dWE(1).Potential/dt < 1E-06 V/s	
60.4737498473185	0.0295745849609375	59.1999998505344	593	8.13292790553533E-05		
60.573749847066	0.0295684814453125	59.2999998502819	594	-0.000157592163304798	dWE(1).Potential/dt < 1E-06 V/s	
60.6737498468135	0.029571533203125	59.3999998500294	595	0.000137239665491506		
60.773749846561	0.0295684814453125	59.4999998497769	596	-0.000111845605715644	dWE(1).Potential/dt < 1E-06 V/s	
60.8737498463086	0.029571533203125	59.5999998495245	597	0.000101663150417153		
60.9737498460561	0.0295684814453125	59.699999849272	598	-0.000101675563200843	dWE(1).Potential/dt < 1E-06 V/s	
61.0737498458036	0.0295654296875	59.7999998490195	599	-1.02445455922862E-05	dWE(1).Potential/dt < 1E-06 V/s	
61.1737498455511	0.0295684814453125	59.899999848767	600	8.14099912531674E-05		
