Time (s)	WE(1).Potential (V)	Corrected time (s)	Index	dWE(1).Potential/dt (V/s)	Cutoffs	OCP value (V)
1.52775699614278	0.00517883300781249	0	1	0	dWE(1).Potential/dt < 1E-06 V/s	0.0127261591892616
1.62775699589031	0.00511474609375	0.0999999997475243	2	-0.000640866928733885	dWE(1).Potential/dt < 1E-06 V/s	
1.72775699563783	0.005078125	0.199999999495049	3	-0.000228889039135538	dWE(1).Potential/dt < 1E-06 V/s	
1.82775699538536	0.005084228515625	0.299999999242573	4	0.000325530156260356		
1.92775699513288	0.0050537109375	0.399999998990097	5	-0.000752767024096102	dWE(1).Potential/dt < 1E-06 V/s	
2.02775699488041	0.00502624511718749	0.499999998737621	6	-0.000127159801195376	dWE(1).Potential/dt < 1E-06 V/s	
2.12775699462793	0.00499877929687501	0.599999998485146	7	-0.000284820445813239	dWE(1).Potential/dt < 1E-06 V/s	
2.22775699437545	0.00496826171875001	0.69999999823267	8	-0.000330616720020771	dWE(1).Potential/dt < 1E-06 V/s	
2.32775699412298	0.0049407958984375	0.799999997980194	9	-0.000239062967011705	dWE(1).Potential/dt < 1E-06 V/s	
2.4277569938705	0.00493469238281249	0.899999997727718	10	0.000106815037725028		
2.52775699361803	0.004925537109375	0.999999997475243	11	-0.000188190984772518	dWE(1).Potential/dt < 1E-06 V/s	
2.62775699336555	0.0049163818359375	1.09999999722277	12	-8.1375939771533E-05	dWE(1).Potential/dt < 1E-06 V/s	
2.72775699311308	0.00489501953125	1.19999999697029	13	-0.000315356999635696	dWE(1).Potential/dt < 1E-06 V/s	
2.8277569928606	0.00487365722656249	1.29999999671782	14	-0.000172931249835528	dWE(1).Potential/dt < 1E-06 V/s	
2.92775699260812	0.004864501953125	1.39999999646534	15	1.01731566246599E-05		
3.02775699235565	0.004840087890625	1.49999999621286	16	-0.000411983346566558	dWE(1).Potential/dt < 1E-06 V/s	
3.12775699210317	0.00486145019531251	1.59999999596039	17	0.000645955093204975		
3.2277569918507	0.00483093261718751	1.69999999570791	18	-0.000890099967364222	dWE(1).Potential/dt < 1E-06 V/s	
3.32775699159822	0.004852294921875	1.79999999545544	19	0.000818884756881744		
3.42775699134575	0.0048370361328125	1.89999999520296	20	-0.000630693801213056	dWE(1).Potential/dt < 1E-06 V/s	
3.52775699109327	0.00482177734375	1.99999999495049	21	-3.05179164570291E-05	dWE(1).Potential/dt < 1E-06 V/s	
3.62775699084079	0.0048187255859375	2.09999999469801	22	7.12027831468731E-05		
3.72775699058832	0.00479736328124999	2.19999999444553	23	-0.000406901439419016	dWE(1).Potential/dt < 1E-06 V/s	
3.82775699033584	0.0047760009765625	2.29999999419306	24	-0.00015258182247635	dWE(1).Potential/dt < 1E-06 V/s	
3.92775699008337	0.0046539306640625	2.39999999394058	25	-0.00205994164571166	dWE(1).Potential/dt < 1E-06 V/s	
4.02775698983089	0.00462951660156249	2.49999999368811	26	0.00090535351773724		
4.12775698957842	0.004656982421875	2.59999999343563	27	0.000381482503144071		
4.22775698932594	0.0047119140625	2.69999999318316	28	0.000605254725087434		
4.32775698907346	0.00476989746093751	2.79999999293068	29	0.00051371956942603		
4.42775698882099	0.00480041503906251	2.8999999926782	30	6.61146550555713E-05		
4.52775698856851	0.00483093261718751	2.99999999242573	31	0.000396728282794356		
4.62775698831604	0.004864501953125	3.09999999217325	32	0.000361116020940244		
4.72775698806356	0.00487670898437501	3.19999999192078	33	-6.61130980006419E-05	dWE(1).Potential/dt < 1E-06 V/s	
4.82775698781109	0.00489501953125	3.2999999916683	34	0.000305162102449685		
4.92775698755861	0.0049285888671875	3.39999999141583	35	0.000442512129666284		
5.02775698730613	0.00489501953125	3.49999999116335	36	-0.000946052372455597	dWE(1).Potential/dt < 1E-06 V/s	
5.12775698705366	0.004901123046875	3.59999999091087	37	0.000615446479059756		
5.22775698680118	0.0049591064453125	3.6999999906584	38	0.000879920611623675		
5.32775698654871	0.005023193359375	3.79999999040592	39	0.000518806162290275		
5.42775698629623	0.00516662597656251	3.89999999015345	40	0.00207519670948386		
5.52775698604376	0.005279541015625	3.99999998990097	41	0.000610345916356891		
5.62775698579128	0.0053558349609375	4.0999999896485	42	0.000559492560569197		
5.7277569855388	0.00530395507812501	4.19999998939602	43	-0.00146484293509275	dWE(1).Potential/dt < 1E-06 V/s	
5.82775698528633	0.00508728027343749	4.29999998914354	44	-0.0031128057744354	dWE(1).Potential/dt < 1E-06 V/s	
5.92775698503385	0.00517883300781249	4.39999998889107	45	0.00403341930359602		
6.02775698478138	0.00567626953125	4.49999998863859	46	0.00732931541278958		
6.1277569845289	0.00551452636718749	4.59999998838612	47	-0.00846355594694614	dWE(1).Potential/dt < 1E-06 V/s	
6.22775698427643	0.00535888671875	4.69999998813364	48	0.00069174513919279		
6.32775698402395	0.00542602539062501	4.79999998788116	49	0.0025075264275074		
6.42775698377147	0.00557861328125001	4.89999998762869	50	0.00149535934906453		
6.527756983519	0.00424804687499999	4.99999998737621	51	-0.0259501449763775	dWE(1).Potential/dt < 1E-06 V/s	
6.62775698326652	0.00499267578125	5.09999998712374	52	0.0296834763139486		
6.72775698301405	0.0053863525390625	5.19999998687126	53	-0.00590516347438097	dWE(1).Potential/dt < 1E-06 V/s	
6.82775698276157	0.005352783203125	5.29999998661879	54	-0.00272624311037362	dWE(1).Potential/dt < 1E-06 V/s	
6.92775698250909	0.005401611328125	5.39999998636631	55	0.00259908474981785		
7.02775698225662	0.005474853515625	5.49999998611383	56	0.000661208585370332		
7.12775698200414	0.005535888671875	5.59999998586136	57	0.000427244638558477		
7.22775698175167	0.0055877685546875	5.69999998560888	58	0.000483201671158895		
7.32775698149919	0.0056640625	5.79999998535641	59	0.000996910384856164		
7.42775698124672	0.005718994140625	5.89999998510393	60	0.000289911666186526		
7.52775698099424	0.0057708740234375	5.99999998485146	61	0.000564583810046315		
7.62775698074176	0.0057952880859375	6.09999998459898	62	2.54220267379424E-05		
7.72775698048929	0.0058563232421875	6.1999999843465	63	0.00100708042737097		
7.82775698023681	0.0059539794921875	6.29999998409403	64	0.00115967472083867		
7.92775697998434	0.005999755859375	6.39999998384155	65	-9.66372244874947E-05	dWE(1).Potential/dt < 1E-06 V/s	
8.02775697973186	0.00604248046875	6.49999998358908	66	0.000574747624341398		
8.12775697947939	0.00611267089843751	6.5999999833366	67	0.000940962636377662		
8.22775697922691	0.0061767578125	6.69999998308413	68	0.000498441222589463		
8.32775697897443	0.0062286376953125	6.79999998283165	69	0.000437430222518742		
8.42775697872196	0.006298828125	6.89999998257917	70	0.000895174161996692		
8.52775697846948	0.0063629150390625	6.9999999823267	71	0.000528976204805076		
8.62775697821701	0.0064239501953125	7.09999998207422	72	0.00060526403831318		
8.72775697796453	0.00649414062500001	7.19999998182175	73	0.000788374629337341		
8.82775697771206	0.0065643310546875	7.29999998156927	74	0.000671384856104851		
8.92775697745958	0.0066558837890625	7.3999999813168	75	0.00109355384483933		
9.0277569772071	0.00670166015625	7.49999998106432	76	5.08968287249445E-06		
9.12775697695463	0.0067626953125	7.59999998081184	77	0.000890099967364222		
9.22775697670215	0.00681152343749999	7.69999998055937	78	0.000335689343046397		
9.32775697644968	0.00689086914062501	7.79999998030689	79	0.0010884718503803		
9.4277569761972	0.0069732666015625	7.89999998005442	80	0.000747669604606926		
9.52775697594473	0.007037353515625	7.99999997980194	81	0.000478118192404509		
9.62775697569225	0.00713500976562501	8.09999997954947	82	0.00131733063608408		
9.72775697543977	0.00720825195312499	8.19999997929699	83	0.000417083909269422		
9.8277569751873	0.0072906494140625	8.29999997904451	84	0.000981636694632471		
9.92775697493482	0.00737609863281249	8.39999997879204	85	0.000849421310704201		
10.0277569746823	0.00745849609375	8.49999997853956	86	0.000788354431279004		
10.1277569744299	0.0075408935546875	8.59999997828709	87	0.000834170903544873		
10.2277569741774	0.0076171875	8.69999997803461	88	0.000712060427758843		
10.3277569739249	0.00771179199218749	8.79999997778214	89	0.00111896963790059		
10.4277569736724	0.00777587890625001	8.89999997752966	90	0.000325525499647483		
10.52775697342	0.007861328125	8.99999997727718	91	0.00113424949813634		
10.6277569731675	0.0079345703125	9.09999997702471	92	0.00055947236251086		
10.727756972915	0.00801696777343749	9.19999997677223	93	0.000940976606216282		
10.8277569726625	0.00809326171874999	9.29999997651976	94	0.000681564270053059		
10.9277569724101	0.00816650390625	9.39999997626728	95	0.00072733877459541		
11.0277569721576	0.00823974609375	9.49999997601481	96	0.000742581440135837		
11.1277569719051	0.0082977294921875	9.59999997576233	97	0.000452679087175056		
11.2277569716526	0.0083648681640625	9.69999997550985	98	0.000798563298303634		
11.3277569714002	0.008441162109375	9.79999997525738	99	0.00080869923112914		
11.4277569711477	0.00852050781249999	9.8999999750049	100	0.000788374629337341		
11.5277569708952	0.008575439453125	9.99999997475243	101	0.000335695542162284		
11.6277569706427	0.008624267578125	10.0999999745	102	0.000518806162290275		
11.7277569703903	0.008685302734375	10.1999999742475	103	0.000732411397621036		
11.8277569701378	0.0087554931640625	10.299999973995	104	0.000737496418878436		
11.9277569698853	0.00881347656250001	10.3999999737425	105	0.000447603379143402		
12.0277569696328	0.00887145996093749	10.49999997349	106	0.000620531500317156		
12.1277569693804	0.0089141845703125	10.5999999732376	107	0.000300087936921045		
12.2277569691279	0.0089691162109375	10.6999999729851	108	0.000701888813637197		
12.3277569688754	0.009014892578125	10.7999999727326	109	0.000340796104865149		
12.4277569686229	0.009051513671875	10.8999999724801	110	0.00032044667750597		
12.5277569683705	0.0090972900390625	10.9999999722277	111	0.000564558955375105		
12.627756968118	0.0091583251953125	11.0999999719752	112	0.000706989376340061		
12.7277569678655	0.0092041015625	11.1999999717227	113	0.000279741623671725		
12.827756967613	0.0092437744140625	11.2999999714702	114	0.000396715855458751		
12.9277569673606	0.009259033203125	11.3999999712178	115	-3.05008434224874E-05	dWE(1).Potential/dt < 1E-06 V/s	
13.0277569671081	0.0092926025390625	11.4999999709653	116	0.000569668831303716		
13.1277569668556	0.0093353271484375	11.5999999707128	117	0.000442493503214791		
13.2277569666031	0.00937805175781251	11.6999999704603	118	0.000396734481910244		
13.3277569663506	0.0093994140625	11.7999999702079	119	3.56013915734366E-05		
13.4277569660982	0.009429931640625	11.8999999699554	120	0.000452675973065197		
13.5277569658457	0.0094573974609375	11.9999999697029	121	0.000218705798033625		
13.6277569655932	0.0094573974609375	12.0999999694504	122	-0.000218699584365822	dWE(1).Potential/dt < 1E-06 V/s	
13.7277569653407	0.00953369140625	12.199999969198	123	0.00149027898442		
13.8277569650883	0.0095489501953125	12.2999999689455	124	-0.000610349059570581	dWE(1).Potential/dt < 1E-06 V/s	
13.9277569648358	0.00957641601562501	12.399999968693	125	0.000579832645598799		
14.0277569645833	0.0095855712890625	12.4999999684405	126	-0.000101722253020853	dWE(1).Potential/dt < 1E-06 V/s	
14.1277569643308	0.0096099853515625	12.5999999681881	127	0.000432311033364385		
14.2277569640784	0.00962219238281251	12.6999999679356	128	-3.05039484373992E-05	dWE(1).Potential/dt < 1E-06 V/s	
14.3277569638259	0.00965270996093751	12.7999999676831	129	0.000498441222589463		
14.4277569635734	0.0096893310546875	12.8999999674306	130	0.000356041855411604		
14.5277569633209	0.00969848632812501	12.9999999671782	131	-0.000157685484737158	dWE(1).Potential/dt < 1E-06 V/s	
14.6277569630685	0.0097076416015625	13.0999999669257	132	0.000183116819243878		
14.727756962816	0.0097381591796875	13.1999999666732	133	0.000483183015603572		
14.8277569625635	0.0097381591796875	13.2999999664207	134	-0.000325522385537624	dWE(1).Potential/dt < 1E-06 V/s	
14.927756962311	0.009765625	13.3999999661683	135	0.000605257810093462		
15.0277569620586	0.009783935546875	13.4999999659158	136	1.52705997606972E-05		
15.1277569618061	0.0097808837890625	13.5999999656633	137	-0.000178034897544421	dWE(1).Potential/dt < 1E-06 V/s	
15.2277569615536	0.00978698730468749	13.6999999654108	138	0.000208554367418401		
15.3277569613011	0.00980529785156251	13.7999999651583	139	0.0002542978618294		
15.4277569610487	0.00980529785156251	13.8999999649059	140	-0.000193280662642792	dWE(1).Potential/dt < 1E-06 V/s	
15.5277569607962	0.009796142578125	13.9999999646534	141	-0.000106810381112155	dWE(1).Potential/dt < 1E-06 V/s	
15.6277569605437	0.0098114013671875	14.0999999644009	142	0.000386555126169696		
15.7277569602912	0.0098388671875	14.1999999641484	143	0.000294999801553786		
15.8277569600388	0.009844970703125	14.299999963896	144	-0.00015765443095006	dWE(1).Potential/dt < 1E-06 V/s	
15.9277569597863	0.00983276367187499	14.3999999636435	145	-0.000203463132493198	dWE(1).Potential/dt < 1E-06 V/s	
16.0277569595338	0.0098388671875	14.499999963391	146	0.000274656602414325		
16.1277569592813	0.0098541259765625	14.5999999631385	147	0.000167858641361818		
16.2277569590289	0.00986328124999999	14.6999999628861	148	1.01886789707351E-05		
16.3277569587764	0.00986328124999999	14.7999999626336	149	-5.59508080186788E-05	dWE(1).Potential/dt < 1E-06 V/s	
16.4277569585239	0.00985107421875001	14.8999999623811	150	-0.000193289975868538	dWE(1).Potential/dt < 1E-06 V/s	
16.5277569582714	0.00984802246093749	14.9999999621286	151	8.64826943143271E-05		
16.6277569580189	0.0098388671875	15.0999999618762	152	-0.000172946762177162	dWE(1).Potential/dt < 1E-06 V/s	
16.7277569577665	0.009844970703125	15.1999999616237	153	0.000208560581086203		
16.827756957514	0.0098419189453125	15.2999999613712	154	-0.000157697897520848	dWE(1).Potential/dt < 1E-06 V/s	
16.9277569572615	0.009844970703125	15.3999999611187	155	0.000111910929263104		
17.027756957009	0.009844970703125	15.4999999608663	156	-4.57869646197651E-05	dWE(1).Potential/dt < 1E-06 V/s	
17.1277569567566	0.009844970703125	15.5999999606138	157	1.01700525192427E-05		
17.2277569565041	0.00986328124999999	15.6999999603613	158	0.000335695542162284		
17.3277569562516	0.0098602294921875	15.7999999601088	159	-0.000269565352937207	dWE(1).Potential/dt < 1E-06 V/s	
17.4277569559991	0.009857177734375	15.8999999598564	160	4.06771032430697E-05		
17.5277569557467	0.00986633300781251	15.9999999596039	161	0.000193274448974989		
17.6277569554942	0.00986328124999999	16.0999999593514	162	-0.000172918822499923	dWE(1).Potential/dt < 1E-06 V/s	
17.7277569552417	0.00986328124999999	16.1999999590989	163	6.61239682813175E-05		
17.8277569549892	0.00985107421875001	16.2999999588465	164	-0.000233979502809234	dWE(1).Potential/dt < 1E-06 V/s	
17.9277569547368	0.0098541259765625	16.399999958594	165	0.000198365683900192		
18.0277569544843	0.00986328124999999	16.4999999583415	166	9.15739292395301E-05		
18.1277569542318	0.009869384765625	16.599999958089	167	1.52426609929535E-05		
18.2277569539793	0.0098602294921875	16.6999999578366	168	-0.000208514014957473	dWE(1).Potential/dt < 1E-06 V/s	
18.3277569537269	0.0098541259765625	16.7999999575841	169	1.52302427522955E-05		
18.4277569534744	0.009844970703125	16.8999999573316	170	-0.000127128761960194	dWE(1).Potential/dt < 1E-06 V/s	
18.5277569532219	0.0098602294921875	16.9999999570791	171	0.000366193271474913		
18.6277569529694	0.0098541259765625	17.0999999568267	172	-0.00032044667750597	dWE(1).Potential/dt < 1E-06 V/s	
18.727756952717	0.0098388671875	17.1999999565742	173	-0.000157657545059919	dWE(1).Potential/dt < 1E-06 V/s	
18.8277569524645	0.00981750488281249	17.2999999563217	174	-0.000233951563131995	dWE(1).Potential/dt < 1E-06 V/s	
18.927756952212	0.009814453125	17.3999999560692	175	0.00014240866585169		
19.0277569519595	0.0097808837890625	17.4999999558167	176	-0.000651054084300995	dWE(1).Potential/dt < 1E-06 V/s	
19.1277569517071	0.0097686767578125	17.5999999555643	177	0.000157685484737158		
19.2277569514546	0.00977478027343751	17.6999999553118	178	0.000142390039400198		
19.3277569512021	0.00975952148437501	17.7999999550593	179	-0.000391640147427097	dWE(1).Potential/dt < 1E-06 V/s	
19.4277569509496	0.00974426269531251	17.8999999548068	180	-8.13883598311804E-05	dWE(1).Potential/dt < 1E-06 V/s	
19.5277569506972	0.0097503662109375	17.9999999545544	181	0.000239058310398832		
19.6277569504447	0.00975646972656249	18.0999999543019	182	-1.01638433989137E-05	dWE(1).Potential/dt < 1E-06 V/s	
19.7277569501922	0.00977478027343751	18.1999999540494	183	0.00028481733170338		
19.8277569499397	0.0097930908203125	18.2999999537969	184	0.000142417979077436		
19.9277569496873	0.0097686767578125	18.3999999535445	185	-0.000600163475610316	dWE(1).Potential/dt < 1E-06 V/s	
20.0277569494348	0.00975646972656249	18.499999953292	186	0.000122059253044426		
20.1277569491823	0.009747314453125	18.5999999530395	187	-0.000106813487946056	dWE(1).Potential/dt < 1E-06 V/s	
20.2277569489298	0.00974426269531251	18.699999952787	188	1.01793657449889E-05		
20.3277569486773	0.00974121093749999	18.7999999525346	189	-5.08564698975533E-05	dWE(1).Potential/dt < 1E-06 V/s	
20.4277569484249	0.009735107421875	18.8999999522821	190	-8.64733810885809E-05	dWE(1).Potential/dt < 1E-06 V/s	
20.5277569481724	0.009722900390625	18.9999999520296	191	-0.000162751879543066	dWE(1).Potential/dt < 1E-06 V/s	
20.6277569479199	0.0097198486328125	19.0999999517771	192	6.61053418298252E-05		
20.7277569476674	0.009716796875	19.1999999515247	193	-6.10327297181357E-05	dWE(1).Potential/dt < 1E-06 V/s	
20.827756947415	0.0097198486328125	19.2999999512722	194	8.13945662230253E-05		
20.9277569471625	0.009735107421875	19.3999999510197	195	0.000233960876357742		
21.02775694691	0.009716796875	19.4999999507672	196	-0.000503544870298356	dWE(1).Potential/dt < 1E-06 V/s	
21.1277569466575	0.00970458984375	19.5999999505148	197	4.07050429203082E-05		
21.2277569464051	0.00969543457031249	19.6999999502623	198	-8.64640678628348E-05	dWE(1).Potential/dt < 1E-06 V/s	
21.3277569461526	0.0096771240234375	19.7999999500098	199	-0.000269571581156924	dWE(1).Potential/dt < 1E-06 V/s	
21.4277569459001	0.0096710205078125	19.8999999497573	200	7.11903630872257E-05		
21.5277569456476	0.0096588134765625	19.9999999495049	201	-0.000213602135772817	dWE(1).Potential/dt < 1E-06 V/s	
21.6277569453952	0.0096435546875	20.0999999492524	202	-0.000157682370627299	dWE(1).Potential/dt < 1E-06 V/s	
21.7277569451427	0.0096405029296875	20.1999999489999	203	8.1375939771533E-05		
21.8277569448902	0.00963439941406249	20.2999999487474	204	-0.000127131861518137	dWE(1).Potential/dt < 1E-06 V/s	
21.9277569446377	0.00965576171875	20.399999948495	205	0.000452660460723564		
22.0277569443853	0.009625244140625	20.4999999482425	206	-0.000829048629384488	dWE(1).Potential/dt < 1E-06 V/s	
22.1277569441328	0.00963745117187501	20.59999994799	207	0.000651038542855531		
22.2277569438803	0.009625244140625	20.6999999477375	208	-0.000467943464173004	dWE(1).Potential/dt < 1E-06 V/s	
22.3277569436278	0.00962219238281251	20.799999947485	209	0.000127159801195376		
22.4277569433754	0.009600830078125	20.8999999472326	210	-0.000396725168684497	dWE(1).Potential/dt < 1E-06 V/s	
22.5277569431229	0.0096160888671875	20.9999999469801	211	0.000518787535838783		
22.6277569428704	0.009613037109375	21.0999999467276	212	-0.000305182271404192	dWE(1).Potential/dt < 1E-06 V/s	
22.7277569426179	0.00960388183593749	21.1999999464751	213	-8.13635197118856E-05	dWE(1).Potential/dt < 1E-06 V/s	
22.8277569423655	0.00958251953125	21.2999999462227	214	-0.000295009114779532	dWE(1).Potential/dt < 1E-06 V/s	
22.927756942113	0.00957336425781249	21.3999999459702	215	5.08750963490456E-05		
23.0277569418605	0.0095672607421875	21.4999999457177	216	-7.6300224463921E-05	dWE(1).Potential/dt < 1E-06 V/s	
23.127756941608	0.00954589843750001	21.5999999454652	217	-0.000350959948264062	dWE(1).Potential/dt < 1E-06 V/s	
23.2277569413556	0.00953369140625	21.6999999452128	218	5.08502625962137E-06		
23.3277569411031	0.00953369140625	21.7999999449603	219	7.12152032065205E-05		
23.4277569408506	0.0095245361328125	21.8999999447078	220	-0.000208523328183219	dWE(1).Potential/dt < 1E-06 V/s	
23.5277569405981	0.00951232910156249	21.9999999444553	221	-0.000116995957796462	dWE(1).Potential/dt < 1E-06 V/s	
23.6277569403456	0.00949707031249999	22.0999999442029	222	-0.000167833801242523	dWE(1).Potential/dt < 1E-06 V/s	
23.7277569400932	0.00950012207031251	22.1999999439504	223	0.000193265135749243		
23.8277569398407	0.00946960449218751	22.2999999436979	224	-0.000645959749817848	dWE(1).Potential/dt < 1E-06 V/s	
23.9277569395882	0.0094573974609375	22.3999999434454	225	0.000142411779961549		
24.0277569393357	0.0094451904296875	22.499999943193	226	-0.000183091979124583	dWE(1).Potential/dt < 1E-06 V/s	
24.1277569390833	0.00942382812500001	22.5999999429405	227	-0.000289933406747878	dWE(1).Potential/dt < 1E-06 V/s	
24.2277569388308	0.00940551757812499	22.699999942688	228	-0.000127141174743883	dWE(1).Potential/dt < 1E-06 V/s	
24.3277569385783	0.00939331054687501	22.7999999424355	229	-8.13976730569266E-05	dWE(1).Potential/dt < 1E-06 V/s	
24.4277569383258	0.00937499999999999	22.8999999421831	230	-0.000254294776823372	dWE(1).Potential/dt < 1E-06 V/s	
24.5277569380734	0.00935974121093749	22.9999999419306	231	-0.000106810381112155	dWE(1).Potential/dt < 1E-06 V/s	
24.6277569378209	0.00933837890625	23.0999999416781	232	-0.000274659716524184	dWE(1).Potential/dt < 1E-06 V/s	
24.7277569375684	0.0093231201171875	23.1999999414256	233	-8.13790466054343E-05	dWE(1).Potential/dt < 1E-06 V/s	
24.8277569373159	0.009307861328125	23.2999999411732	234	-0.000172934349393472	dWE(1).Potential/dt < 1E-06 V/s	
24.9277569370635	0.00930175781250001	23.3999999409207	235	1.52488692037878E-05		
25.027756936811	0.0092742919921875	23.4999999406682	236	-0.000483195442939177	dWE(1).Potential/dt < 1E-06 V/s	
25.1277569365585	0.00925292968749999	23.5999999404157	237	-9.15304699447006E-05	dWE(1).Potential/dt < 1E-06 V/s	
25.227756936306	0.00926513671875	23.6999999401633	238	0.000381463876692578		
25.3277569360536	0.009246826171875	23.7999999399108	239	-0.000549328746274114	dWE(1).Potential/dt < 1E-06 V/s	
25.4277569358011	0.00922546386718751	23.8999999396583	240	-0.000137332957820036	dWE(1).Potential/dt < 1E-06 V/s	
25.5277569355486	0.0092132568359375	23.9999999394058	241	-3.5604494769359E-05	dWE(1).Potential/dt < 1E-06 V/s	
25.6277569352961	0.00922241210937499	24.0999999391533	242	0.000239076936850324		
25.7277569350437	0.00921020507812501	24.1999999389009	243	-0.000371318659745157	dWE(1).Potential/dt < 1E-06 V/s	
25.8277569347912	0.00921020507812501	24.2999999386484	244	0.000172931249835528		
25.9277569345387	0.00921630859375	24.3999999383959	245	7.1208989538718E-05		
26.0277569342862	0.0091888427734375	24.4999999381434	246	-0.00057474453933537	dWE(1).Potential/dt < 1E-06 V/s	
26.1277569340338	0.0091552734375	24.599999937891	247	-0.000274672114755958	dWE(1).Potential/dt < 1E-06 V/s	
26.2277569337813	0.0091064453125	24.6999999376385	248	-0.00059509085258469	dWE(1).Potential/dt < 1E-06 V/s	
26.3277569335288	0.009112548828125	24.799999937386	249	0.00056968122953549		
26.4277569332763	0.0090911865234375	24.8999999371335	250	-0.000625638291239738	dWE(1).Potential/dt < 1E-06 V/s	
26.5277569330239	0.00909423828125	24.9999999368811	251	0.000325544126098976		
26.6277569327714	0.0090667724609375	25.0999999366286	252	-0.000610355229582638	dWE(1).Potential/dt < 1E-06 V/s	
26.7277569325189	0.00906982421874999	25.1999999363761	253	0.000386552012059838		
26.8277569322664	0.0090362548828125	25.2999999361236	254	-0.000742587668355554	dWE(1).Potential/dt < 1E-06 V/s	
26.9277569320139	0.0090057373046875	25.3999999358712	255	-0.000157682370627299	dWE(1).Potential/dt < 1E-06 V/s	
27.0277569317615	0.0089874267578125	25.4999999356187	256	-9.15615164558403E-05	dWE(1).Potential/dt < 1E-06 V/s	
27.127756931509	0.00896301269531249	25.5999999353662	257	-0.000335676915710792	dWE(1).Potential/dt < 1E-06 V/s	
27.2277569312565	0.008941650390625	25.6999999351137	258	-0.000167852427694015	dWE(1).Potential/dt < 1E-06 V/s	
27.327756931004	0.00894775390624999	25.7999999348613	259	0.000279757165117189		
27.4277569307516	0.0089263916015625	25.8999999346088	260	-0.000534064311068505	dWE(1).Potential/dt < 1E-06 V/s	
27.5277569304991	0.0089080810546875	25.9999999343563	261	-6.61239682813175E-05	dWE(1).Potential/dt < 1E-06 V/s	
27.6277569302466	0.00888671874999999	26.0999999341038	262	-0.000249203527346253	dWE(1).Potential/dt < 1E-06 V/s	
27.7277569299941	0.0089080810546875	26.1999999338514	263	0.000579817162360996		
27.8277569297417	0.0088836669921875	26.2999999335989	264	-0.000768003461416811	dWE(1).Potential/dt < 1E-06 V/s	
27.9277569294892	0.008837890625	26.3999999333464	265	-0.000483214069390669	dWE(1).Potential/dt < 1E-06 V/s	
28.0277569292367	0.0088043212890625	26.4999999330939	266	-0.000162767406436615	dWE(1).Potential/dt < 1E-06 V/s	
28.1277569289842	0.0087860107421875	26.5999999328415	267	-9.66372244874947E-05	dWE(1).Potential/dt < 1E-06 V/s	
28.2277569287318	0.00876770019531251	26.699999932589	268	-0.000233963975915685	dWE(1).Potential/dt < 1E-06 V/s	
28.3277569284793	0.00873718261718751	26.7999999323365	269	-0.000406913837650791	dWE(1).Potential/dt < 1E-06 V/s	
28.4277569282268	0.0087005615234375	26.899999932084	270	-0.000376375741325319	dWE(1).Potential/dt < 1E-06 V/s	
28.5277569279743	0.008685302734375	26.9999999318316	271	4.57652349723503E-05		
28.6277569277219	0.0086517333984375	27.0999999315791	272	-0.000559495703782886	dWE(1).Potential/dt < 1E-06 V/s	
28.7277569274694	0.0086181640625	27.1999999313266	273	-0.000274656602414325	dWE(1).Potential/dt < 1E-06 V/s	
28.8277569272169	0.0085784912109375	27.2999999310741	274	-0.000447572325356305	dWE(1).Potential/dt < 1E-06 V/s	
28.9277569269644	0.008544921875	27.3999999308217	275	-0.000264508271357045	dWE(1).Potential/dt < 1E-06 V/s	
29.027756926712	0.00852050781249999	27.4999999305692	276	-0.00018817390082404	dWE(1).Potential/dt < 1E-06 V/s	
29.1277569264595	0.0084564208984375	27.5999999303167	277	-0.00100199540611356	dWE(1).Potential/dt < 1E-06 V/s	
29.227756926207	0.00841064453125	27.6999999300642	278	-0.000172940563061275	dWE(1).Potential/dt < 1E-06 V/s	
29.3277569259545	0.0083740234375	27.7999999298117	279	-0.00035096614737995	dWE(1).Potential/dt < 1E-06 V/s	
29.4277569257021	0.008343505859375	27.8999999295593	280	-0.000284814246697351	dWE(1).Potential/dt < 1E-06 V/s	
29.5277569254496	0.00830993652343751	27.9999999293068	281	-0.000381473189918324	dWE(1).Potential/dt < 1E-06 V/s	
29.6277569251971	0.008282470703125	28.0999999290543	282	-0.000213630075450055	dWE(1).Potential/dt < 1E-06 V/s	
29.7277569249446	0.00824890136718751	28.1999999288018	283	-0.000406898325309157	dWE(1).Potential/dt < 1E-06 V/s	
29.8277569246922	0.00823059082031249	28.2999999285494	284	-3.55951815436129E-05	dWE(1).Potential/dt < 1E-06 V/s	
29.9277569244397	0.008160400390625	28.3999999282969	285	-0.00118511216714978	dWE(1).Potential/dt < 1E-06 V/s	
30.0277569241872	0.00810546875	28.4999999280444	286	-0.000249203527346253	dWE(1).Potential/dt < 1E-06 V/s	
30.1277569239347	0.00809631347656251	28.5999999277919	287	0.000239021057495847		
30.2277569236823	0.0080841064453125	28.6999999275395	288	-0.000300081737805158	dWE(1).Potential/dt < 1E-06 V/s	
30.3277569234298	0.008026123046875	28.799999927287	289	-0.000951120280660689	dWE(1).Potential/dt < 1E-06 V/s	
30.4277569231773	0.0079833984375	28.8999999270345	290	-0.000147503014886752	dWE(1).Potential/dt < 1E-06 V/s	
30.5277569229248	0.007952880859375	28.999999926782	291	-0.00025432271650061	dWE(1).Potential/dt < 1E-06 V/s	
30.6277569226723	0.0079193115234375	29.0999999265296	292	-0.000401822617277503	dWE(1).Potential/dt < 1E-06 V/s	
30.7277569224199	0.0078857421875	29.1999999262771	293	-0.000325519271427765	dWE(1).Potential/dt < 1E-06 V/s	
30.8277569221674	0.0078582763671875	29.2999999260246	294	-0.000223781506065279	dWE(1).Potential/dt < 1E-06 V/s	
30.9277569219149	0.00782165527343751	29.3999999257721	295	-0.00046286775614135	dWE(1).Potential/dt < 1E-06 V/s	
31.0277569216624	0.00778808593749999	29.4999999255197	296	-0.000279741623671725	dWE(1).Potential/dt < 1E-06 V/s	
31.12775692141	0.00776062011718751	29.5999999252672	297	-0.000233973289141431	dWE(1).Potential/dt < 1E-06 V/s	
31.2277569211575	0.007720947265625	29.6999999250147	298	-0.000518790620844811	dWE(1).Potential/dt < 1E-06 V/s	
31.327756920905	0.0076904296875	29.7999999247622	299	-0.000188194084330462	dWE(1).Potential/dt < 1E-06 V/s	
31.4277569206525	0.0076568603515625	29.8999999245098	300	-0.000391647918149829	dWE(1).Potential/dt < 1E-06 V/s	
31.5277569204001	0.0076263427734375	29.9999999242573	301	-0.000269562267931178	dWE(1).Potential/dt < 1E-06 V/s	
31.6277569201476	0.00759277343750001	30.0999999240048	302	-0.000371287605958059	dWE(1).Potential/dt < 1E-06 V/s	
31.7277569198951	0.0075714111328125	30.1999999237523	303	-0.000101722253020853	dWE(1).Potential/dt < 1E-06 V/s	
31.8277569196426	0.00753173828125001	30.2999999234999	304	-0.000590021372772753	dWE(1).Potential/dt < 1E-06 V/s	
31.9277569193902	0.00750122070312501	30.3999999232474	305	-0.000167832244187593	dWE(1).Potential/dt < 1E-06 V/s	
32.0277569191377	0.007476806640625	30.4999999229949	306	-0.000223793918848969	dWE(1).Potential/dt < 1E-06 V/s	
32.1277569188852	0.007464599609375	30.5999999227424	307	-4.06879698857665E-05	dWE(1).Potential/dt < 1E-06 V/s	
32.2277569186327	0.0074188232421875	30.69999992249	308	-0.000778209243435413	dWE(1).Potential/dt < 1E-06 V/s	
32.3277569183803	0.0073974609375	30.7999999222375	309	0.000101712939795107		
32.4277569181278	0.00736083984374999	30.899999921985	310	-0.000574728997889906	dWE(1).Potential/dt < 1E-06 V/s	
32.5277569178753	0.0073272705078125	30.9999999217325	311	-0.000259407737758011	dWE(1).Potential/dt < 1E-06 V/s	
32.6277569176228	0.007305908203125	31.09999992148	312	-0.000122087192721665	dWE(1).Potential/dt < 1E-06 V/s	
32.7277569173704	0.00727233886718751	31.1999999212276	313	-0.000478084024507552	dWE(1).Potential/dt < 1E-06 V/s	
32.8277569171179	0.00724182128906251	31.2999999209751	314	-0.000239055210840888	dWE(1).Potential/dt < 1E-06 V/s	
32.9277569168654	0.00722351074218749	31.3999999207226	315	-9.15522032300942E-05	dWE(1).Potential/dt < 1E-06 V/s	
33.0277569166129	0.00721435546875	31.4999999204701	316	-5.59616746613756E-05	dWE(1).Potential/dt < 1E-06 V/s	
33.1277569163605	0.0071685791015625	31.5999999202177	317	-0.000793445680756122	dWE(1).Potential/dt < 1E-06 V/s	
33.227756916108	0.0071258544921875	31.6999999199652	318	-0.000279736967058852	dWE(1).Potential/dt < 1E-06 V/s	
33.3277569158555	0.00710449218750001	31.7999999197127	319	-4.57807582279202E-05	dWE(1).Potential/dt < 1E-06 V/s	
33.427756915603	0.0070770263671875	31.8999999194602	320	-0.000396728282794356	dWE(1).Potential/dt < 1E-06 V/s	
33.5277569153506	0.0070648193359375	31.9999999192078	321	2.54437563853571E-05		
33.6277569150981	0.007049560546875	32.0999999189553	322	-0.000228889810387045	dWE(1).Potential/dt < 1E-06 V/s	
33.7277569148456	0.00701293945312501	32.1999999187028	323	-0.000534054997842759	dWE(1).Potential/dt < 1E-06 V/s	
33.8277569145931	0.0070068359375	32.2999999184503	324	0.00026449587312527		
33.9277569143406	0.006976318359375	32.3999999181979	325	-0.000610364542808384	dWE(1).Potential/dt < 1E-06 V/s	
34.0277569140882	0.0069549560546875	32.4999999179454	326	-5.59616746613756E-05	dWE(1).Potential/dt < 1E-06 V/s	
34.1277569138357	0.006939697265625	32.5999999176929	327	-0.000132226196001284	dWE(1).Potential/dt < 1E-06 V/s	
34.2277569135832	0.00692138671875001	32.6999999174404	328	-0.000228885153774172	dWE(1).Potential/dt < 1E-06 V/s	
34.3277569133307	0.00690612792968751	32.799999917188	329	-0.000116989751404617	dWE(1).Potential/dt < 1E-06 V/s	
34.4277569130783	0.00689086914062501	32.8999999169355	330	-0.000162761192768812	dWE(1).Potential/dt < 1E-06 V/s	
34.5277569128258	0.006878662109375	32.999999916683	331	-9.66480947681703E-05	dWE(1).Potential/dt < 1E-06 V/s	
34.6277569125733	0.00684814453125	33.0999999164305	332	-0.000467935722554103	dWE(1).Potential/dt < 1E-06 V/s	
34.7277569123208	0.00685729980468749	33.1999999161781	333	0.000483193900436163		
34.8277569120684	0.0068511962890625	33.2999999159256	334	-0.000320428051054478	dWE(1).Potential/dt < 1E-06 V/s	
34.9277569118159	0.00682983398437501	33.3999999156731	335	-0.000289917894406244	dWE(1).Potential/dt < 1E-06 V/s	
35.0277569115634	0.00681457519531251	33.4999999154206	336	-5.08673365402501E-05	dWE(1).Potential/dt < 1E-06 V/s	
35.1277569113109	0.00681152343749999	33.5999999151682	337	5.08564698975533E-05		
35.2277569110585	0.00681152343749999	33.6999999149157	338	-1.52504217112437E-05	dWE(1).Potential/dt < 1E-06 V/s	
35.327756910806	0.006793212890625	33.7999999146632	339	-0.000345857843058184	dWE(1).Potential/dt < 1E-06 V/s	
35.4277569105535	0.0067901611328125	33.8999999144107	340	0.00015766840078868		
35.527756910301	0.0067901611328125	33.9999999141583	341	-2.54297865467379E-05	dWE(1).Potential/dt < 1E-06 V/s	
35.6277569100486	0.006787109375	34.0999999139058	342	-6.61270678392611E-05	dWE(1).Potential/dt < 1E-06 V/s	
35.7277569097961	0.006793212890625	34.1999999136533	343	0.000147509214002639		
35.8277569095436	0.0067901611328125	34.2999999134008	344	-0.000137332957820036	dWE(1).Potential/dt < 1E-06 V/s	
35.9277569092911	0.00677490234375	34.3999999131483	345	-0.000223793918848969	dWE(1).Potential/dt < 1E-06 V/s	
36.0277569090387	0.00675354003906251	34.4999999128959	346	-0.000223793918848969	dWE(1).Potential/dt < 1E-06 V/s	
36.1277569087862	0.00675048828124999	34.5999999126434	347	0.000142405566293746		
36.2277569085337	0.0067291259765625	34.6999999123909	348	-0.000427235325332731	dWE(1).Potential/dt < 1E-06 V/s	
36.3277569082812	0.00672607421875	34.7999999121384	349	0.000183096635737456		
36.4277569080288	0.00673522949218749	34.899999911886	350	0.000132243279949762		
36.5277569077763	0.00675048828124999	34.9999999116335	351	0.000162764292326756		
36.6277569075238	0.0067138671875	35.099999911381	352	-0.000818884756881744	dWE(1).Potential/dt < 1E-06 V/s	
36.7277569072713	0.006683349609375	35.1999999111285	353	-8.13837032183073E-05	dWE(1).Potential/dt < 1E-06 V/s	
36.8277569070189	0.0066864013671875	35.2999999108761	354	0.000289922551019117		
36.9277569067664	0.006671142578125	35.3999999106236	355	-0.000417071481933817	dWE(1).Potential/dt < 1E-06 V/s	
37.0277569065139	0.00666198730468751	35.4999999103711	356	2.03463132493198E-05		
37.1277569062614	0.00666198730468751	35.5999999101186	357	5.59446016268339E-05		
37.2277569060089	0.0066497802734375	35.6999999098662	358	-0.00025432271650061	dWE(1).Potential/dt < 1E-06 V/s	
37.3277569057565	0.0066497802734375	35.7999999096137	359	0.000142416436574422		
37.427756905504	0.00665283203125	35.8999999093612	360	1.52597349369898E-05		
37.5277569052515	0.0066497802734375	35.9999999091087	361	-9.15584096219391E-05	dWE(1).Potential/dt < 1E-06 V/s	
37.627756904999	0.0066497802734375	36.0999999088563	362	4.57745481980965E-05		
37.7277569047466	0.00664367675781249	36.1999999086038	363	-0.000122071665828116	dWE(1).Potential/dt < 1E-06 V/s	
37.8277569044941	0.00665283203125	36.2999999083513	364	0.000239061424508691		
37.9277569042416	0.00664672851562501	36.3999999080988	365	-0.000239055210840888	dWE(1).Potential/dt < 1E-06 V/s	
38.0277569039891	0.0066558837890625	36.4999999078464	366	0.00026957000955008		
38.1277569037367	0.0066558837890625	36.5999999075939	367	-0.000127150487969629	dWE(1).Potential/dt < 1E-06 V/s	
38.2277569034842	0.00665283203125	36.6999999073414	368	-2.54328915616497E-05	dWE(1).Potential/dt < 1E-06 V/s	
38.3277569032317	0.00665893554687499	36.7999999070889	369	0.000147499900776893		
38.4277569029792	0.006640625	36.8999999068365	370	-0.000417062168708071	dWE(1).Potential/dt < 1E-06 V/s	
38.5277569027268	0.0066558837890625	36.999999906584	371	0.000513711827807128		
38.6277569024743	0.0066497802734375	37.0999999063315	372	-0.000350958376657218	dWE(1).Potential/dt < 1E-06 V/s	
38.7277569022218	0.00665283203125	37.199999906079	373	0.000178022484760731		
38.8277569019693	0.0066650390625	37.2999999058266	374	0.000167840014910325		
38.9277569017169	0.0066650390625	37.3999999055741	375	-0.000132244822452776	dWE(1).Potential/dt < 1E-06 V/s	
39.0277569014644	0.0066650390625	37.4999999053216	376	4.06864164688159E-05		
39.1277569012119	0.00667419433593749	37.5999999050691	377	0.000167846214026213		
39.2277569009594	0.006683349609375	37.6999999048167	378	6.10420465818606E-05		
39.327756900707	0.006695556640625	37.7999999045642	379	0.000147493701661006		
39.4277569004545	0.006683349609375	37.8999999043117	380	-0.000335690885549411	dWE(1).Potential/dt < 1E-06 V/s	
39.527756900202	0.006683349609375	37.9999999040592	381	0.000183104406460188		
39.6277568999495	0.00667724609375001	38.0999999038067	382	-0.000152584936586209	dWE(1).Potential/dt < 1E-06 V/s	
39.7277568996971	0.006695556640625	38.1999999035543	383	0.000406889012083411		
39.8277568994446	0.0067108154296875	38.2999999033018	384	4.57776513940189E-05		
39.9277568991921	0.00672302246093751	38.3999999030493	385	0.000106815037725028		
40.0277568989396	0.00671997070312499	38.4999999027968	386	-0.000147512328112498	dWE(1).Potential/dt < 1E-06 V/s	
40.1277568986872	0.0067291259765625	38.5999999025444	387	0.000244152644881979		
40.2277568984347	0.00675048828124999	38.6999999022919	388	0.000274651945801452		
40.3277568981822	0.0067626953125	38.7999999020394	389	5.0989960982406E-06		
40.4277568979297	0.00676879882812501	38.8999999017869	390	4.06864164688159E-05		
40.5277568976772	0.00676574707031249	38.9999999015345	391	-8.64749381435104E-05	dWE(1).Potential/dt < 1E-06 V/s	
40.6277568974248	0.00676574707031249	39.099999901282	392	5.59570180485025E-05		
40.7277568971723	0.00676574707031249	39.1999999010295	393	-1.0171604117204E-05	dWE(1).Potential/dt < 1E-06 V/s	
40.8277568969198	0.0067626953125	39.299999900777	394	-5.59399450139608E-05	dWE(1).Potential/dt < 1E-06 V/s	
40.9277568966673	0.00676879882812501	39.3999999005246	395	0.000147498358273879		
41.0277568964149	0.00676879882812501	39.4999999002721	396	-8.13837032183073E-05	dWE(1).Potential/dt < 1E-06 V/s	
41.1277568961624	0.00676879882812501	39.5999999000196	397	2.03432082344079E-05		
41.2277568959099	0.00678405761718751	39.6999998997671	398	0.00027974316617474		
41.3277568956574	0.00679626464843749	39.7999998995147	399	4.57698915852234E-05		
41.427756895405	0.00681152343749999	39.8999998992622	400	0.000188200297998264		
41.5277568951525	0.0068084716796875	39.9999998990097	401	-0.000193269792362116	dWE(1).Potential/dt < 1E-06 V/s	
41.6277568949	0.0068817138671875	40.0999998987572	402	0.00142923532985151		
41.7277568946475	0.00688781738281249	40.1999998985048	403	-0.000752768595702946	dWE(1).Potential/dt < 1E-06 V/s	
41.8277568943951	0.00688781738281249	40.2999998982523	404	0.000172937448951416		
41.9277568941426	0.0069000244140625	40.3999998979998	405	0.00024414955987595		
42.0277568938901	0.00692138671875001	40.4999998977473	406	0.00024922369630076		
42.1277568936376	0.0069244384765625	40.5999998974949	407	-0.000152598906424828	dWE(1).Potential/dt < 1E-06 V/s	
42.2277568933852	0.00695190429687501	40.6999998972424	408	0.000539152475539595		
42.3277568931327	0.0069580078125	40.7999998969899	409	-0.000198361027287319	dWE(1).Potential/dt < 1E-06 V/s	
42.4277568928802	0.00696411132812499	40.8999998967374	410	0.000132238623336889		
42.5277568926277	0.00696411132812499	40.999999896485	411	-5.08704397361726E-05	dWE(1).Potential/dt < 1E-06 V/s	
42.6277568923753	0.0069732666015625	41.0999998962325	412	0.000188189427717589		
42.7277568921228	0.006988525390625	41.19999989598	413	0.000172935906448402		
42.8277568918703	0.00701293945312501	41.2999998957275	414	0.000300092593533918		
42.9277568916178	0.0070220947265625	41.399999895475	415	-6.61115482216701E-05	dWE(1).Potential/dt < 1E-06 V/s	
43.0277568913654	0.00703125	41.4999998952226	416	0.000142393153510056		
43.1277568911129	0.0070526123046875	41.5999998949701	417	0.000315375626087189		
43.2277568908604	0.007080078125	41.6999998947176	418	0.000284808018477634		
43.3277568906079	0.00709228515625	41.7999998944651	419	-2.54282349487767E-05	dWE(1).Potential/dt < 1E-06 V/s	
43.4277568903555	0.007110595703125	41.8999998942127	420	0.000284845271380618		
43.527756890103	0.00714111328125	41.9999998939602	421	0.000386548897949979		
43.6277568898505	0.0071746826171875	42.0999998937077	422	0.000320440478390083		
43.727756889598	0.00722656250000001	42.1999998934552	423	0.000661202415358275		
43.8277568893456	0.00727233886718751	42.2999998932028	424	0.000345881126122549		
43.9277568890931	0.0072479248046875	42.3999998929503	425	-0.000808714714366943	dWE(1).Potential/dt < 1E-06 V/s	
44.0277568888406	0.00723876953124999	42.4999998926978	426	0.000269566924544051		
44.1277568885881	0.0072662353515625	42.5999998924453	427	0.000528971548192203		
44.2277568883356	0.00727233886718751	42.6999998921929	428	-0.000239064524066634	dWE(1).Potential/dt < 1E-06 V/s	
44.3277568880832	0.00730285644531251	42.7999998919404	429	0.000579849758651108		
44.4277568878307	0.00731201171875	42.8999998916879	430	-0.000167840014910325	dWE(1).Potential/dt < 1E-06 V/s	
44.5277568875782	0.007342529296875	42.9999998914354	431	0.000554390484467149		
44.6277568873257	0.0073699951171875	43.099999891183	432	0.000178011614480056		
44.7277568870733	0.0073516845703125	43.1999998909305	433	-0.000554401311092079	dWE(1).Potential/dt < 1E-06 V/s	
44.8277568868208	0.00744018554687501	43.299999890678	434	0.00192771223373711		
44.9277568865683	0.0074951171875	43.3999998904255	435	-8.64640678628348E-05	dWE(1).Potential/dt < 1E-06 V/s	
45.0277568863158	0.00752868652343749	43.4999998901731	436	0.000269552954705432		
45.1277568860634	0.00754699707031251	43.5999998899206	437	0.000127161358250305		
45.2277568858109	0.00755615234375	43.6999998896681	438	6.61332815070637E-05		
45.3277568855584	0.0075836181640625	43.7999998894156	439	0.000457747024483979		
45.4277568853059	0.00760803222656251	43.8999998891632	440	0.000157683927682228		
45.5277568850535	0.0076446533203125	43.9999998889107	441	0.000478113535791636		
45.627756884801	0.0076873779296875	44.0999998886582	442	0.00043741159606725		
45.7277568845485	0.0077362060546875	44.1999998884057	443	0.000518813903909177		
45.827756884296	0.00777587890625001	44.2999998881533	444	0.000300084822811186		
45.9277568840436	0.0078094482421875	44.3999998879008	445	0.000315349228912964		
46.0277568837911	0.007843017578125	44.4999998876483	446	0.00035605116863735		
46.1277568835386	0.00789794921875001	44.5999998873958	447	0.000727318634744734		
46.2277568832861	0.0079376220703125	44.6999998871433	448	0.000198374997125939		
46.3277568830337	0.00800170898437499	44.7999998868909	449	0.000895175675395876		
46.4277568827812	0.0080413818359375	44.8999998866384	450	0.000111901616037358		
46.5277568825287	0.0080841064453125	44.9999998863859	451	0.000534054997842759		
46.6277568822762	0.00812683105468751	45.0999998861334	452	0.000417077681049705		
46.7277568820238	0.0081756591796875	45.199999885881	453	0.000539136934094131		
46.8277568817713	0.0082122802734375	45.2999998856285	454	0.000244158873101696		
46.9277568815188	0.00826416015625001	45.399999885376	455	0.000686615123413503		
47.0277568812663	0.00832214355468749	45.4999998851235	456	0.000579857500270009		
47.1277568810139	0.0083648681640625	45.5999998848711	457	0.000279741623671725		
47.2277568807614	0.00841064453125	45.6999998846186	458	0.00053405191283673		
47.3277568805089	0.0084686279296875	45.7999998843661	459	0.000671378686092794		
47.4277568802564	0.0085174560546875	45.8999998841136	460	0.000371309346519411		
47.5277568800039	0.008575439453125	45.9999998838612	461	0.000686630664858967		
47.6277568797515	0.00862731933593749	46.0999998836087	462	0.000437436421634629		
47.727756879499	0.0086822509765625	46.1999998833562	463	0.000595087767578661		
47.8277568792465	0.0087249755859375	46.2999998831037	464	0.000315346114803106		
47.927756878994	0.0087860107421875	46.3999998828513	465	0.000803639006335288		
48.0277568787416	0.00885009765625	46.4999998825988	466	0.000605273351538926		
48.1277568784891	0.00891723632812499	46.5999998823463	467	0.000686649291310459		
48.2277568782366	0.0089874267578125	46.6999998820938	468	0.000717159418854862		
48.3277568779841	0.009051513671875	46.7999998818414	469	0.000579842017032206		
48.4277568777317	0.00910339355468751	46.8999998815889	470	0.000437392969615757		
48.5277568774792	0.00916748046875	46.9999998813364	471	0.000783292693085968		
48.6277568772267	0.009234619140625	47.0999998810839	472	0.000656145333778113		
48.7277568769742	0.0093048095703125	47.1999998808315	473	0.000717137707397342		
48.8277568767218	0.00937805175781251	47.299999880579	474	0.000747694401070476		
48.9277568764693	0.0094482421875	47.3999998803265	475	0.00066630297806114		
49.0277568762168	0.009503173828125	47.499999880074	476	0.000432311033364385		
49.1277568759643	0.0095794677734375	47.5999998798216	477	0.000991840846836567		
49.2277568757119	0.0096588134765625	47.6999998795691	478	0.000747688231058419		
49.3277568754594	0.009722900390625	47.7999998793166	479	0.000503538642078638		
49.4277568752069	0.009765625	47.8999998790641	480	0.00030007550958544		
49.5277568749544	0.00985107421875001	47.9999998788116	481	0.00128173700068146		
49.627756874702	0.00991210937500001	48.0999998785592	482	0.000264480331679806		
49.7277568744495	0.00980529785156251	48.1999998783067	483	-0.00238546705804765	dWE(1).Potential/dt < 1E-06 V/s	
49.827756874197	0.0100128173828125	48.2999998780542	484	0.00525412335991859		
49.9277568739445	0.0100830078125	48.3999998778017	485	-0.00149029761087149	dWE(1).Potential/dt < 1E-06 V/s	
50.0277568736921	0.0101654052734375	48.4999998775493	486	0.00138349342159927		
50.1277568734396	0.0102325439453125	48.5999998772968	487	0.000503507617395371		
50.2277568731871	0.0103179931640625	48.6999998770443	488	0.0010579617228359		
50.3277568729346	0.01036376953125	48.7999998767918	489	6.61084413877688E-05		
50.4277568726822	0.0104278564453125	48.8999998765394	490	0.000925704487599432		
50.5277568724297	0.0105010986328125	48.9999998762869	491	0.000747688231058419		
50.6277568721772	0.01058349609375	49.0999998760344	492	0.000869728857651353		
50.7277568719247	0.0106475830078125	49.1999998757819	493	0.000457770307548344		
50.8277568716722	0.010699462890625	49.2999998755295	494	0.00047812593402341		
50.9277568714198	0.0107696533203125	49.399999875277	495	0.000895157048944384		
51.0277568711673	0.0108367919921875	49.4999998750245	496	0.000584948749747127		
51.1277568709148	0.0109039306640625	49.599999874772	497	0.000681526958942413		
51.2277568706623	0.0109619140625	49.6999998745196	498	0.000503563496749848		
51.3277568704099	0.0110076904296875	49.7999998742671	499	0.000386558211175725		
51.4277568701574	0.0110595703125	49.8999998740146	500	0.000610345916356891		
51.5277568699049	0.011114501953125	49.9999998737621	501	0.000554429250769317		
51.6277568696524	0.011175537109375	50.0999998735097	502	0.000651038542855531		
51.7277568694	0.011212158203125	50.1999998732572	503	0.00014240866585169		
51.8277568691475	0.01126708984375	50.2999998730047	504	0.000783311319537461		
51.927756868895	0.0113250732421875	50.3999998727522	505	0.000544221955351532		
52.0277568686425	0.01136474609375	50.4999998724998	506	0.000233951563131995		
52.1277568683901	0.011407470703125	50.5999998722473	507	0.000513724226038903		
52.2277568681376	0.0114654541015625	50.6999998719948	508	0.000696825503837317		
52.3277568678851	0.0114837646484375	50.7999998717423	509	-0.000198381210793741	dWE(1).Potential/dt < 1E-06 V/s	
52.4277568676326	0.011492919921875	50.8999998714899	510	0.000147515427670442		
52.5277568673802	0.0115631103515625	50.9999998712374	511	0.00124102574773133		
52.6277568671277	0.0116607666015625	51.0999998709849	512	0.0010020233457908		
52.7277568668752	0.011676025390625	51.1999998707324	513	-0.000625628978013992	dWE(1).Potential/dt < 1E-06 V/s	
52.8277568666227	0.0116973876953125	51.29999987048	514	0.000539127620868385		
52.9277568663703	0.01171875	51.3999998702275	515	0.000193289975868538		
53.0277568661178	0.0117767333984375	51.499999869975	516	0.000885002547875047		
53.1277568658653	0.0118194580078125	51.5999998697225	517	0.000178025584318675		
53.2277568656128	0.0118682861328125	51.69999986947	518	0.000589999603107572		
53.3277568653604	0.0119110107421875	51.7999998692176	519	0.000356041855411604		
53.4277568651079	0.0119354248046875	51.8999998689651	520	0.000111901616037358		
53.5277568648554	0.011968994140625	51.9999998687126	521	0.00047301608719863		
53.6277568646029	0.01199951171875	52.0999998684601	522	0.000249240780249238		
53.7277568643505	0.012042236328125	52.1999998682077	523	0.000539146247319877		
53.827756864098	0.0120697021484375	52.2999998679552	524	0.000106797968328465		
53.9277568638455	0.01209716796875	52.3999998677027	525	0.000325522385537624		
54.027756863593	0.01212158203125	52.4999998674502	526	0.000218733737710863		
54.1277568633406	0.0121368408203125	52.5999998671978	527	8.64640678628348E-05		
54.2277568630881	0.0121673583984375	52.6999998669453	528	0.000462858442915604		
54.3277568628356	0.01219482421875	52.7999998666928	529	0.000198365683900192		
54.4277568625831	0.0122222900390625	52.8999998664403	530	0.00028481733170338		
54.5277568623306	0.012249755859375	52.9999998661879	531	0.000274659716524184		
54.6277568620782	0.01226806640625	53.0999998659354	532	0.000106825908005703		
54.7277568618257	0.0122955322265625	53.1999998656829	533	0.000381457677576691		
54.8277568615732	0.0123199462890625	53.2999998654304	534	0.000188217367394827		
54.9277568613207	0.012335205078125	53.399999865178	535	8.64640678628348E-05		
55.0277568610683	0.012353515625	53.4999998649255	536	0.000239042798057199		
55.1277568608158	0.01236572265625	53.599999864673	537	6.10513598076068E-05		
55.2277568605633	0.0123931884765625	53.6999998644205	538	0.000422156503191218		
55.3277568603108	0.01241455078125	53.7999998641681	539	0.00011187678319402		
55.4277568600584	0.0124267578125	53.8999998639156	540	6.61425947328098E-05		
55.5277568598059	0.0124359130859375	53.9999998636631	541	9.66310180956498E-05		
55.6277568595534	0.0124481201171875	54.0999998634106	542	0.000157673057401553		
55.7277568593009	0.0124755859375	54.1999998631582	543	0.000391646346542984		
55.8277568590485	0.0124847412109375	54.2999998629057	544	-0.000111895409645513	dWE(1).Potential/dt < 1E-06 V/s	
55.927756858796	0.0125030517578125	54.3999998626532	545	0.000320428051054478		
56.0277568585435	0.0125274658203125	54.4999998624007	546	0.000264489644905552		
56.127756858291	0.0125274658203125	54.5999998621483	547	-0.000223793918848969	dWE(1).Potential/dt < 1E-06 V/s	
56.2277568580386	0.012542724609375	54.6999998618958	548	0.000361123762559146		
56.3277568577861	0.0125579833984375	54.7999998616433	549	0.000101725359854754		
56.4277568575336	0.012567138671875	54.8999998613908	550	4.0680210076971E-05		
56.5277568572811	0.012567138671875	54.9999998611383	551	-5.59539148525801E-05	dWE(1).Potential/dt < 1E-06 V/s	
56.6277568570287	0.01258544921875	55.0999998608859	552	0.000366208812920377		
56.7277568567762	0.0125885009765625	55.1999998606334	553	-0.000157660644617863	dWE(1).Potential/dt < 1E-06 V/s	
56.8277568565237	0.012591552734375	55.2999998603809	554	8.13790466054343E-05		
56.9277568562712	0.0126129150390625	55.3999998601284	555	0.000366187072359025		
57.0277568560188	0.0126251220703125	55.499999859876	556	-1.52364518726245E-05	dWE(1).Potential/dt < 1E-06 V/s	
57.1277568557663	0.012646484375	55.5999998596235	557	0.00032042182283476		
57.2277568555138	0.01265869140625	55.699999859371	558	1.52674965647748E-05		
57.3277568552613	0.0126556396484375	55.7999998591185	559	-0.000127150487969629	dWE(1).Potential/dt < 1E-06 V/s	
57.4277568550089	0.0126739501953125	55.8999998588661	560	0.000411970919230953		
57.5277568547564	0.0126800537109375	55.9999998586136	561	-0.000111889203253668	dWE(1).Potential/dt < 1E-06 V/s	
57.6277568545039	0.012689208984375	56.0999998583611	562	0.000157660644617863		
57.7277568542514	0.012701416015625	56.1999998581086	563	0.000137345370603725		
57.8277568539989	0.012689208984375	56.2999998578562	564	-0.000335711054503918	dWE(1).Potential/dt < 1E-06 V/s	
57.9277568537465	0.0126953125	56.3999998576037	565	0.000295012228889391		
58.027756853494	0.0127044677734375	56.4999998573512	566	5.59352884010877E-05		
58.1277568532415	0.012701416015625	56.5999998570987	567	-0.000142399352625944	dWE(1).Potential/dt < 1E-06 V/s	
58.227756852989	0.0127227783203125	56.6999998568463	568	0.000457751681096852		
58.3277568527366	0.0127349853515625	56.7999998565938	569	-3.55951815436129E-05	dWE(1).Potential/dt < 1E-06 V/s	
58.4277568524841	0.0127288818359375	56.8999998563413	570	-0.000183104406460188	dWE(1).Potential/dt < 1E-06 V/s	
58.5277568522316	0.012750244140625	56.9999998560888	571	0.000503513845615089		
58.6277568519791	0.012750244140625	57.0999998558364	572	-0.000269568467047065	dWE(1).Potential/dt < 1E-06 V/s	
58.7277568517267	0.0127471923828125	57.1999998555839	573	1.52705997606972E-05		
58.8277568514742	0.0128021240234375	57.2999998553314	574	0.00104267871938646		
58.9277568512217	0.0128021240234375	57.3999998550789	575	-0.000651038542855531	dWE(1).Potential/dt < 1E-06 V/s	
59.0277568509692	0.012841796875	57.4999998548265	576	0.000910430797375739		
59.1277568507168	0.0128631591796875	57.599999854574	577	-7.12027831468731E-05	dWE(1).Potential/dt < 1E-06 V/s	
59.2277568504643	0.0127716064453125	57.6999998543215	578	-0.00179545499850065	dWE(1).Potential/dt < 1E-06 V/s	
59.3277568502118	0.012762451171875	57.799999854069	579	0.00097148836357519		
59.4277568499593	0.0127593994140625	57.8999998538166	580	-0.000254313403274864	dWE(1).Potential/dt < 1E-06 V/s	
59.5277568497069	0.012762451171875	57.9999998535641	581	6.10327297181357E-05		
59.6277568494544	0.0127685546875	58.0999998533116	582	6.6117754613515E-05		
59.7277568492019	0.0127655029296875	58.1999998530591	583	-0.00011697733134497	dWE(1).Potential/dt < 1E-06 V/s	
59.8277568489494	0.0127685546875	58.2999998528066	584	0.000111889203253668		
59.927756848697	0.0127716064453125	58.3999998525542	585	1.01855739558232E-05		
60.0277568484445	0.012774658203125	58.4999998523017	586	3.05163648590678E-05		
60.127756848192	0.0127838134765625	58.5999998520492	587	0.000142396253068		
60.2277568479395	0.0127777099609375	58.6999998517967	588	-0.000208504701731727	dWE(1).Potential/dt < 1E-06 V/s	
60.3277568476871	0.012774658203125	58.7999998515443	589	4.57683381682727E-05		
60.4277568474346	0.0127716064453125	58.8999998512918	590	-4.07019397243857E-05	dWE(1).Potential/dt < 1E-06 V/s	
60.5277568471821	0.012774658203125	58.9999998510393	591	8.13914593891241E-05		
60.6277568469296	0.0127777099609375	59.0999998507868	592	1.01669475043309E-05		
60.7277568466772	0.01278076171875	59.1999998505344	593	3.05101566482335E-05		
60.8277568464247	0.0127716064453125	59.2999998502819	594	-0.000193271349417046	dWE(1).Potential/dt < 1E-06 V/s	
60.9277568461722	0.012774658203125	59.3999998500294	595	0.000172934349393472		
61.0277568459197	0.012774658203125	59.4999998497769	596	-6.61301746731624E-05	dWE(1).Potential/dt < 1E-06 V/s	
61.1277568456672	0.01278076171875	59.5999998495245	597	0.000122053046652582		
61.2277568454148	0.0127655029296875	59.699999849272	598	-0.000350950605934486	dWE(1).Potential/dt < 1E-06 V/s	
61.3277568451623	0.012774658203125	59.7999998490195	599	0.000366218126146123		
61.4277568449098	0.01278076171875	59.899999848767	600	-4.58024878753349E-05	dWE(1).Potential/dt < 1E-06 V/s	
