Time (s)	WE(1).Potential (V)	Corrected time (s)	Index	dWE(1).Potential/dt (V/s)	Cutoffs	OCP value (V)
1.40574099645085	-0.020245361328125	0	1	0	dWE(1).Potential/dt < 1E-06 V/s	-0.0181938620174632
1.50574099619837	-0.020208740234375	0.0999999997475243	2	0.000366214575478807		
1.60574099594589	-0.020135498046875	0.199999999495049	3	0.000915545737370849		
1.70574099569342	-0.0201629638671875	0.299999999242573	4	-0.00123601371888071	dWE(1).Potential/dt < 1E-06 V/s	
1.80574099544094	-0.0201751708984375	0.399999998990097	5	0.000340845348546281		
1.90574099518847	-0.0201629638671875	0.499999998737621	6	0.000274622114375234		
2.00574099493599	-0.0202178955078125	0.599999998485146	7	-0.00119014922529459	dWE(1).Potential/dt < 1E-06 V/s	
2.10574099468352	-0.020220947265625	0.69999999823267	8	0.000625612679868937		
2.20574099443104	-0.0202728271484375	0.799999997980194	9	-0.00109863129910082	dWE(1).Potential/dt < 1E-06 V/s	
2.30574099417856	-0.0202911376953125	0.899999997727718	10	0.000259354652371258		
2.40574099392609	-0.0203094482421875	0.999999997475243	11	-0.000294980825856328	dWE(1).Potential/dt < 1E-06 V/s	
2.50574099367361	-0.0203338623046875	1.09999999722277	12	-0.00029499945230782	dWE(1).Potential/dt < 1E-06 V/s	
2.60574099342114	-0.02030029296875	1.19999999697029	13	0.000839195970911533		
2.70574099316866	-0.020318603515625	1.29999999671782	14	-0.00080866098869592	dWE(1).Potential/dt < 1E-06 V/s	
2.80574099291618	-0.0202880859375	1.39999999646534	15	0.000884973560459912		
2.90574099266371	-0.0202667236328125	1.49999999621286	16	-2.54251008300344E-05	dWE(1).Potential/dt < 1E-06 V/s	
3.00574099241123	-0.020294189453125	1.59999999596039	17	-0.000651037786155939	dWE(1).Potential/dt < 1E-06 V/s	
3.10574099215876	-0.020318603515625	1.69999999570791	18	-5.59352192794904E-05	dWE(1).Potential/dt < 1E-06 V/s	
3.20574099190628	-0.0203582763671875	1.79999999545544	19	-0.000534069899003953	dWE(1).Potential/dt < 1E-06 V/s	
3.30574099165381	-0.0203765869140625	1.89999999520296	20	4.57713904324919E-05		
3.40574099140133	-0.0203643798828125	1.99999999495049	21	0.000305219175061211		
3.50574099114885	-0.020281982421875	2.09999999469801	22	0.00130714196711779		
3.60574099089638	-0.0202972412109375	2.19999999444553	23	-0.00120033172424883	dWE(1).Potential/dt < 1E-06 V/s	
3.7057409906439	-0.0203948974609375	2.29999999419306	24	-0.00133768317755312	dWE(1).Potential/dt < 1E-06 V/s	
3.80574099039143	-0.02049560546875	2.39999999394058	25	-0.000757860485464334	dWE(1).Potential/dt < 1E-06 V/s	
3.90574099013895	-0.020538330078125	2.49999999368811	26	6.61238882457837E-05		
4.00574098988648	-0.020574951171875	2.59999999343563	27	-0.000508632394485176	dWE(1).Potential/dt < 1E-06 V/s	
4.105740989634	-0.0206085205078125	2.69999999318316	28	-0.000330569775542244	dWE(1).Potential/dt < 1E-06 V/s	
4.20574098938152	-0.0206787109375	2.79999999293068	29	-0.00101727724540979	dWE(1).Potential/dt < 1E-06 V/s	
4.30574098912905	-0.0207183837890625	2.8999999926782	30	-2.03587060241261E-05	dWE(1).Potential/dt < 1E-06 V/s	
4.40574098887657	-0.020733642578125	2.99999999242573	31	-5.0868828111561E-05	dWE(1).Potential/dt < 1E-06 V/s	
4.5057409886241	-0.0208251953125	3.09999999217325	32	-0.00163270742632449	dWE(1).Potential/dt < 1E-06 V/s	
4.60574098837162	-0.0208740234375	3.19999999192078	33	0.000122077733976766		
4.70574098811915	-0.020916748046875	3.2999999916683	34	-0.000518821063451469	dWE(1).Potential/dt < 1E-06 V/s	
4.80574098786667	-0.020989990234375	3.39999999141583	35	-0.00100705749355257	dWE(1).Potential/dt < 1E-06 V/s	
4.90574098761419	-0.021038818359375	3.49999999116335	36	-0.000183160067535937	dWE(1).Potential/dt < 1E-06 V/s	
5.00574098736172	-0.0210723876953125	3.59999999091087	37	-0.00028988960548304	dWE(1).Potential/dt < 1E-06 V/s	
5.10574098710924	-0.021148681640625	3.6999999906584	38	-0.00116984639316797	dWE(1).Potential/dt < 1E-06 V/s	
5.20574098685677	-0.0211669921875	3.79999999040592	39	0.000442527118138969		
5.30574098660429	-0.021142578125	3.89999999015345	40	0.000406900944653898		
5.40574098635182	-0.02120361328125	3.99999998990097	41	-0.00146485830191523	dWE(1).Potential/dt < 1E-06 V/s	
5.50574098609934	-0.0211700439453125	4.0999999896485	42	0.00140886718872935		
5.60574098584686	-0.0211822509765625	4.19999998939602	43	-0.000818824802991003	dWE(1).Potential/dt < 1E-06 V/s	
5.70574098559439	-0.02120361328125	4.29999998914354	44	-0.000137345210532658	dWE(1).Potential/dt < 1E-06 V/s	
5.80574098534191	-0.021221923828125	4.39999998889107	45	-0.000127200008137152	dWE(1).Potential/dt < 1E-06 V/s	
5.90574098508944	-0.0213226318359375	4.49999998863859	46	-0.00170388526748866	dWE(1).Potential/dt < 1E-06 V/s	
6.00574098483696	-0.0213653564453125	4.59999998838612	47	0.000330650480464101		
6.10574098458449	-0.0214111328125	4.69999998813364	48	-0.000676475290674716	dWE(1).Potential/dt < 1E-06 V/s	
6.20574098433201	-0.0214202880859375	4.79999998788116	49	0.000223771930905059		
6.30574098407953	-0.02144775390625	4.89999998762869	50	-0.000549293938092887	dWE(1).Potential/dt < 1E-06 V/s	
6.40574098382706	-0.0214935302734375	4.99999998737621	51	-0.000549343589227647	dWE(1).Potential/dt < 1E-06 V/s	
6.50574098357458	-0.02149658203125	5.09999998712374	52	0.000386523606721312		
6.60574098332211	-0.0215118408203125	5.19999998687126	53	-0.00039672470302321	dWE(1).Potential/dt < 1E-06 V/s	
6.70574098306963	-0.021563720703125	5.29999998661879	54	-0.000783260737080127	dWE(1).Potential/dt < 1E-06 V/s	
6.80574098281716	-0.0215850830078125	5.39999998636631	55	0.000162757889484055		
6.90574098256468	-0.0216094970703125	5.49999998611383	56	-0.000371299596736208	dWE(1).Potential/dt < 1E-06 V/s	
7.0057409823122	-0.0216461181640625	5.59999998586136	57	-0.000457751157227904	dWE(1).Potential/dt < 1E-06 V/s	
7.10574098205973	-0.021673583984375	5.69999998560888	58	-0.000157710121129639	dWE(1).Potential/dt < 1E-06 V/s	
7.20574098180725	-0.0216949462890625	5.79999998535641	59	-0.000193255604244769	dWE(1).Potential/dt < 1E-06 V/s	
7.30574098155478	-0.0217041015625	5.89999998510393	60	-1.01886662378092E-05	dWE(1).Potential/dt < 1E-06 V/s	
7.4057409813023	-0.021759033203125	5.99999998485146	61	-0.000971449946518987	dWE(1).Potential/dt < 1E-06 V/s	
7.50574098104983	-0.0218353271484375	6.09999998459898	62	-0.000788383011240512	dWE(1).Potential/dt < 1E-06 V/s	
7.60574098079735	-0.022003173828125	6.1999999843465	63	-0.00237019686028361	dWE(1).Potential/dt < 1E-06 V/s	
7.70574098054487	-0.021868896484375	6.29999998409403	64	0.00416566850617528		
7.8057409802924	-0.021868896484375	6.39999998384155	65	-0.00212604738771915	dWE(1).Potential/dt < 1E-06 V/s	
7.90574098003992	-0.0218841552734375	6.49999998358908	66	0.000167861537192948		
8.00574097978745	-0.02186279296875	6.5999999833366	67	0.000569634023122489		
8.10574097953497	-0.0218963623046875	6.69999998308413	68	-0.000915514712687582	dWE(1).Potential/dt < 1E-06 V/s	
8.2057409792825	-0.02188720703125	6.79999998283165	69	0.000630679074674845		
8.30574097903002	-0.0219085693359375	6.89999998257917	70	-0.000610338989645243	dWE(1).Potential/dt < 1E-06 V/s	
8.40574097877754	-0.0218963623046875	6.9999999823267	71	0.000503534974996001		
8.50574097852507	-0.0218902587890625	7.09999998207422	72	-0.00010171902977163	dWE(1).Potential/dt < 1E-06 V/s	
8.60574097827259	-0.0218994140625	7.19999998182175	73	-0.000198371664737351	dWE(1).Potential/dt < 1E-06 V/s	
8.70574097802012	-0.02193603515625	7.29999998156927	74	-0.000544215086847544	dWE(1).Potential/dt < 1E-06 V/s	
8.80574097776764	-0.0219573974609375	7.3999999813168	75	5.0601847760845E-06		
8.90574097751517	-0.0220306396484375	7.49999998106432	76	-0.00121562404092401	dWE(1).Potential/dt < 1E-06 V/s	
9.00574097726269	-0.021966552734375	7.59999998081184	77	0.00195822934620082		
9.10574097701021	-0.0219390869140625	7.69999998055937	78	-0.000488335790578276	dWE(1).Potential/dt < 1E-06 V/s	
9.20574097675774	-0.0219085693359375	7.79999998030689	79	0.000452684762421995		
9.30574097650526	-0.0219024658203125	7.89999998005442	80	-0.000152594060637057	dWE(1).Potential/dt < 1E-06 V/s	
9.40574097625279	-0.02188720703125	7.99999997980194	81	0.000310279341647401		
9.50574097600031	-0.02188720703125	8.09999997954947	82	-0.000157666669110768	dWE(1).Potential/dt < 1E-06 V/s	
9.60574097574784	-0.0218658447265625	8.19999997929699	83	0.000442520919023082		
9.70574097549536	-0.0218841552734375	8.29999997904451	84	-0.00058491388335824	dWE(1).Potential/dt < 1E-06 V/s	
9.80574097524288	-0.0219146728515625	8.39999997879204	85	-0.000274646969046444	dWE(1).Potential/dt < 1E-06 V/s	
9.90574097499041	-0.0219024658203125	8.49999997853956	86	0.000518783810548484		
10.0057409747379	-0.0219085693359375	8.59999997828709	87	-0.000356025906512514	dWE(1).Potential/dt < 1E-06 V/s	
10.1057409744855	-0.021978759765625	8.69999997803461	88	-0.00117494387086481	dWE(1).Potential/dt < 1E-06 V/s	
10.205740974233	-0.021868896484375	8.79999997778214	89	0.00281274877488613		
10.3057409739805	-0.0218414306640625	8.89999997752966	90	-0.00101219839416444	dWE(1).Potential/dt < 1E-06 V/s	
10.405740973728	-0.021759033203125	8.99999997727718	91	0.00155643210746348		
10.5057409734756	-0.0217681884765625	9.09999997702471	92	-0.00103760487399995	dWE(1).Potential/dt < 1E-06 V/s	
10.6057409732231	-0.02188720703125	9.19999997677223	93	-0.00180057517718524	dWE(1).Potential/dt < 1E-06 V/s	
10.7057409729706	-0.021966552734375	9.29999997651976	94	-9.65843355515972E-05	dWE(1).Potential/dt < 1E-06 V/s	
10.8057409727181	-0.02197265625	9.39999997626728	95	0.000417027535149828		
10.9057409724657	-0.0219757080078125	9.49999997601481	96	-0.000249190808972344	dWE(1).Potential/dt < 1E-06 V/s	
11.0057409722132	-0.0219268798828125	9.59999997576233	97	0.000910429691430181		
11.1057409719607	-0.021905517578125	9.69999997550985	98	-0.000188176782103255	dWE(1).Potential/dt < 1E-06 V/s	
11.2057409717082	-0.0219329833984375	9.79999997525738	99	-0.000590048613958061	dWE(1).Potential/dt < 1E-06 V/s	
11.3057409714557	-0.02193603515625	9.8999999750049	100	0.000335747929057106		
11.4057409712033	-0.021893310546875	9.99999997475243	101	0.000727269623894244		
11.5057409709508	-0.021856689453125	10.0999999745	102	0.000162776515935548		
11.6057409706983	-0.0216949462890625	10.1999999742475	103	0.00268046371638775		
11.7057409704458	-0.0217529296875	10.299999973995	104	-0.00282795401290059	dWE(1).Potential/dt < 1E-06 V/s	
11.8057409701934	-0.0217620849609375	10.3999999737425	105	0.00104775629006326		
11.9057409699409	-0.0217803955078125	10.49999997349	106	-0.000422162207541987	dWE(1).Potential/dt < 1E-06 V/s	
12.0057409696884	-0.0217254638671875	10.5999999732376	107	0.00119019893463701		
12.1057409694359	-0.0216827392578125	10.6999999729851	108	8.13727383501828E-05		
12.2057409691835	-0.02166748046875	10.7999999727326	109	-3.56075579475146E-05	dWE(1).Potential/dt < 1E-06 V/s	
12.305740968931	-0.021588134765625	10.8999999724801	110	0.00141904968768358		
12.4057409686785	-0.0216033935546875	10.9999999722277	111	-0.00115459132939577	dWE(1).Potential/dt < 1E-06 V/s	
12.505740968426	-0.0216949462890625	11.0999999719752	112	-0.00123597646597773	dWE(1).Potential/dt < 1E-06 V/s	
12.6057409681736	-0.021484375	11.1999999717227	113	0.00487773260101676		
12.7057409679211	-0.0213958740234375	11.2999999714702	114	-0.00113930529914796	dWE(1).Potential/dt < 1E-06 V/s	
12.8057409676686	-0.021356201171875	11.3999999712178	115	0.000396730902139097		
12.9057409674161	-0.0213165283203125	11.4999999709653	116	0.000559463980607688		
13.0057409671637	-0.0212738037109375	11.5999999707128	117	0.000452709587989375		
13.1057409669112	-0.021282958984375	11.6999999704603	118	-0.000534088525455445	dWE(1).Potential/dt < 1E-06 V/s	
13.2057409666587	-0.02122802734375	11.7999999702079	119	0.0012563414638862		
13.3057409664062	-0.02117919921875	11.8999999699554	120	0.000223778130020946		
13.4057409661538	-0.0211517333984375	11.9999999697029	121	0.000117011339170858		
13.5057409659013	-0.0210540771484375	12.0999999694504	122	0.00163265771698207		
13.6057409656488	-0.021002197265625	12.199999969198	123	-9.66340085142292E-05	dWE(1).Potential/dt < 1E-06 V/s	
13.7057409653963	-0.0209991455078125	12.2999999689455	124	-0.000223753304453567	dWE(1).Potential/dt < 1E-06 V/s	
13.8057409651439	-0.0209564208984375	12.399999968693	125	0.00092058110749349		
13.9057409648914	-0.0209259033203125	12.4999999684405	126	7.12337423465215E-05		
14.0057409646389	-0.020849609375	12.5999999681881	127	0.00118510145694017		
14.1057409643864	-0.020806884765625	12.6999999679356	128	-5.0601847760845E-06	dWE(1).Potential/dt < 1E-06 V/s	
14.205740964134	-0.020758056640625	12.7999999676831	129	0.00065098813502118		
14.3057409638815	-0.020721435546875	12.8999999674306	130	0.00024418652174063		
14.405740963629	-0.0206451416015625	12.9999999671782	131	0.00113422027789056		
14.5057409633765	-0.02052001953125	13.0999999669257	132	0.00152585993055254		
14.605740963124	-0.020379638671875	13.1999999666732	133	0.00136822427157313		
14.7057409628716	-0.0203094482421875	13.2999999664207	134	6.60866353427991E-05		
14.8057409626191	-0.020330810546875	13.3999999661683	135	-0.000742586795240641	dWE(1).Potential/dt < 1E-06 V/s	
14.9057409623666	-0.0202667236328125	13.4999999659158	136	0.00165816978551447		
15.0057409621141	-0.020172119140625	13.5999999656633	137	0.000915502314455807		
15.1057409618617	-0.0201202392578125	13.6999999654108	138	6.10512870480306E-05		
15.2057409616092	-0.0200592041015625	13.7999999651583	139	0.000829038326628506		
15.3057409613567	-0.0200103759765625	13.8999999649059	140	0.000356013479176909		
15.4057409611042	-0.019970703125	13.9999999646534	141	0.000361148180672899		
15.5057409608518	-0.0199127197265625	14.0999999644009	142	0.0007629330502823		
15.6057409605993	-0.01986083984375	14.1999999641484	143	0.000406907143769786		
15.7057409603468	-0.019818115234375	14.299999963896	144	0.000371249916497618		
15.8057409600943	-0.019757080078125	14.3999999636435	145	0.000793461804278195		
15.9057409598419	-0.01982421875	14.499999963391	146	-0.0018005131278187	dWE(1).Potential/dt < 1E-06 V/s	
16.0057409595894	-0.01982421875	14.5999999631385	147	0.000986742204986513		
16.1057409593369	-0.019818115234375	14.6999999628861	148	-0.000111920111521613	dWE(1).Potential/dt < 1E-06 V/s	
16.2057409590844	-0.019793701171875	14.7999999626336	149	0.000376415671780705		
16.305740958832	-0.019659423828125	14.8999999623811	150	0.00219723768532276		
16.4057409585795	-0.019500732421875	14.9999999621286	151	0.00142419058829546		
16.505740958327	-0.0194244384765625	15.0999999618762	152	-5.10364634465077E-06	dWE(1).Potential/dt < 1E-06 V/s	
16.6057409580745	-0.01934814453125	15.1999999616237	153	0.0010375987039879		
16.7057409578221	-0.019256591796875	15.2999999613712	154	0.0010426837252453		
16.8057409575696	-0.0191864013671875	15.3999999611187	155	0.000473012420115992		
16.9057409573171	-0.019183349609375	15.4999999608663	156	-0.000457713904324919	dWE(1).Potential/dt < 1E-06 V/s	
17.0057409570646	-0.0190521240234375	15.5999999606138	157	0.00260415114462376		
17.1057409568122	-0.0189453125	15.6999999603613	158	0.000437404843978584		
17.2057409565597	-0.0187255859375	15.7999999601088	159	0.00321960612200201		
17.3057409563072	-0.018804931640625	15.8999999598564	160	-0.0036621147301048	dWE(1).Potential/dt < 1E-06 V/s	
17.4057409560547	-0.0187347412109375	15.9999999596039	161	0.00294495932757854		
17.5057409558023	-0.018682861328125	16.0999999593514	162	-0.000132260189275257	dWE(1).Potential/dt < 1E-06 V/s	
17.6057409555498	-0.0186767578125	16.1999999590989	163	-0.00025937327882275	dWE(1).Potential/dt < 1E-06 V/s	
17.7057409552973	-0.0186798095703125	16.2999999588465	164	4.57838068541605E-05		
17.8057409550448	-0.0186279296875	16.399999958594	165	0.00100705132354051		
17.9057409547923	-0.0185943603515625	16.4999999583415	166	2.48352627352233E-08	dWE(1).Potential/dt < 1E-06 V/s	
18.0057409545399	-0.018560791015625	16.599999958089	167	0.000396681221900508		
18.1057409542874	-0.0185302734375	16.6999999578366	168	0.000279781641438603		
18.2057409540349	-0.0184906005859375	16.7999999575841	169	0.000483188661746681		
18.3057409537824	-0.018438720703125	16.8999999573316	170	0.000589992734603584		
18.40574095353	-0.018377685546875	16.9999999570791	171	0.000645971391350031		
18.5057409532775	-0.0183563232421875	17.0999999568267	172	-0.000147484213812277	dWE(1).Potential/dt < 1E-06 V/s	
18.605740953025	-0.0183502197265625	17.1999999565742	173	6.61176818539388E-05		
18.7057409527725	-0.0182861328125	17.2999999563217	174	0.00117488799151033		
18.8057409525201	-0.0182342529296875	17.3999999560692	175	0.000223840223043226		
18.9057409522676	-0.0181121826171875	17.4999999558167	176	0.0018462969455868		
19.0057409520151	-0.018023681640625	17.5999999555643	177	0.0003713182231877		
19.1057409517626	-0.01793212890625	17.6999999553118	178	0.00105286610778421		
19.2057409515102	-0.017913818359375	17.7999999550593	179	-0.000437423470430076	dWE(1).Potential/dt < 1E-06 V/s	
19.3057409512577	-0.01787109375	17.8999999548068	180	0.000874859397299588		
19.4057409510052	-0.01781005859375	17.9999999545544	181	0.000681566540151834		
19.5057409507527	-0.0177642822265625	18.0999999543019	182	0.000269586773356423		
19.6057409505003	-0.017742919921875	18.1999999540494	183	6.10078241152223E-05		
19.7057409502478	-0.0177398681640625	18.2999999537969	184	-4.06677427235991E-05	dWE(1).Potential/dt < 1E-06 V/s	
19.8057409499953	-0.01768798828125	18.3999999535445	185	0.000986717408522964		
19.9057409497428	-0.01768798828125	18.499999953292	186	-0.000595065299421549	dWE(1).Potential/dt < 1E-06 V/s	
20.0057409494904	-0.01771240234375	18.5999999530395	187	-0.000274684221949428	dWE(1).Potential/dt < 1E-06 V/s	
20.1057409492379	-0.0177032470703125	18.699999952787	188	0.000452709587989375		
20.2057409489854	-0.017657470703125	18.7999999525346	189	0.000651044014375657		
20.3057409487329	-0.0176239013671875	18.8999999522821	190	0.000111895278678276		
20.4057409484805	-0.0176055908203125	18.9999999520296	191	9.66215884545818E-05		
20.505740948228	-0.017584228515625	19.0999999517771	192	0.00028991443105042		
20.6057409479755	-0.0175537109375	19.1999999515247	193	0.000371312024071813		
20.705740947723	-0.0175018310546875	19.2999999512722	194	0.000666317704599351		
20.8057409474706	-0.0175140380859375	19.3999999510197	195	-0.000727368984371424	dWE(1).Potential/dt < 1E-06 V/s	
20.9057409472181	-0.017572021484375	19.4999999507672	196	-0.000747659360058606	dWE(1).Potential/dt < 1E-06 V/s	
21.0057409469656	-0.0174468994140625	19.5999999505148	197	0.00292964209802449		
21.1057409467131	-0.0173309326171875	19.6999999502623	198	0.000473049673018977		
21.2057409464607	-0.01727294921875	19.7999999500098	199	0.000127150342450477		
21.3057409462082	-0.017242431640625	19.8999999497573	200	0.00026956814690493		
21.4057409459557	-0.0172332763671875	19.9999999495049	201	5.07881122757681E-06		
21.5057409457032	-0.0171905517578125	20.0999999492524	202	0.00077823776518926		
21.6057409454507	-0.017181396484375	20.1999999489999	203	-0.00030013415380381	dWE(1).Potential/dt < 1E-06 V/s	
21.7057409451983	-0.0171234130859375	20.2999999487474	204	0.0010986685520038		
21.8057409449458	-0.017132568359375	20.399999948495	205	-0.000813832913991064	dWE(1).Potential/dt < 1E-06 V/s	
21.9057409446933	-0.0171112060546875	20.4999999482425	206	0.000691736582666636		
22.0057409444408	-0.017095947265625	20.59999994799	207	1.24176313676116E-08	dWE(1).Potential/dt < 1E-06 V/s	
22.1057409441884	-0.017083740234375	20.6999999477375	208	0.000117011339170858		
22.2057409439359	-0.017083740234375	20.799999947485	209	-9.15862401598133E-05	dWE(1).Potential/dt < 1E-06 V/s	
22.3057409436834	-0.0170928955078125	20.8999999472326	210	-0.000127150342450477	dWE(1).Potential/dt < 1E-06 V/s	
22.4057409434309	-0.017071533203125	20.9999999469801	211	0.000498437497299165		
22.5057409431785	-0.0170989990234375	21.0999999467276	212	-0.000783260737080127	dWE(1).Potential/dt < 1E-06 V/s	
22.605740942926	-0.01712646484375	21.1999999464751	213	-0.00011194494436495	dWE(1).Potential/dt < 1E-06 V/s	
22.7057409426735	-0.01710205078125	21.2999999462227	214	0.000676500145345926		
22.805740942421	-0.01710205078125	21.3999999459702	215	-0.000376409443560988	dWE(1).Potential/dt < 1E-06 V/s	
22.9057409421686	-0.017108154296875	21.4999999457177	216	-3.04914938169532E-05	dWE(1).Potential/dt < 1E-06 V/s	
23.0057409419161	-0.0171539306640625	21.5999999454652	217	-0.0007680180715397	dWE(1).Potential/dt < 1E-06 V/s	
23.1057409416636	-0.01715087890625	21.6999999452128	218	0.000569658819586039		
23.2057409414111	-0.01708984375	21.7999999449603	219	0.000930788402911276		
23.3057409411587	-0.0170989990234375	21.8999999447078	220	-0.000869743293151259	dWE(1).Potential/dt < 1E-06 V/s	
23.4057409409062	-0.0170013427734375	21.9999999444553	221	0.00210061622783542		
23.5057409406537	-0.0169464111328125	22.0999999442029	222	-0.000162745476700366	dWE(1).Potential/dt < 1E-06 V/s	
23.6057409404012	-0.01700439453125	22.1999999439504	223	-0.00137841294053942	dWE(1).Potential/dt < 1E-06 V/s	
23.7057409401488	-0.0170013427734375	22.2999999436979	224	0.000915589218493551		
23.8057409398963	-0.0170135498046875	22.3999999434454	225	-0.000452703388873488	dWE(1).Potential/dt < 1E-06 V/s	
23.9057409396438	-0.017047119140625	22.499999943193	226	-0.000462823751149699	dWE(1).Potential/dt < 1E-06 V/s	
24.0057409393913	-0.017059326171875	22.5999999429405	227	0.000127144128782675		
24.1057409391389	-0.0170989990234375	22.699999942688	228	-0.000696802977472544	dWE(1).Potential/dt < 1E-06 V/s	
24.2057409388864	-0.017095947265625	22.7999999424355	229	0.000478066387586296		
24.3057409386339	-0.0171173095703125	22.8999999421831	230	-0.000559463980607688	dWE(1).Potential/dt < 1E-06 V/s	
24.4057409383814	-0.0171295166015625	22.9999999419306	231	3.56075579475146E-05		
24.505740938129	-0.017144775390625	23.0999999416781	232	-0.000208560333703645	dWE(1).Potential/dt < 1E-06 V/s	
24.6057409378765	-0.0171966552734375	23.1999999414256	233	-0.000813814287539572	dWE(1).Potential/dt < 1E-06 V/s	
24.705740937624	-0.0172119140625	23.2999999411732	234	0.000274671794613823		
24.8057409373715	-0.017218017578125	23.3999999409207	235	-0.000106822670204565	dWE(1).Potential/dt < 1E-06 V/s	
24.905740937119	-0.017230224609375	23.4999999406682	236	-0.000203400806640275	dWE(1).Potential/dt < 1E-06 V/s	
25.0057409368666	-0.017236328125	23.5999999404157	237	1.01576224551536E-05		
25.1057409366141	-0.0172515869140625	23.6999999401633	238	-0.000249240489210933	dWE(1).Potential/dt < 1E-06 V/s	
25.2057409363616	-0.0172821044921875	23.7999999399108	239	-0.000401822122512385	dWE(1).Potential/dt < 1E-06 V/s	
25.3057409361091	-0.0173675537109375	23.8999999396583	240	-0.00126138923224062	dWE(1).Potential/dt < 1E-06 V/s	
25.4057409358567	-0.01739501953125	23.9999999394058	241	0.000391645880881697		
25.5057409356042	-0.0172882080078125	24.0999999391533	242	0.00199381844140589		
25.6057409353517	-0.017266845703125	24.1999999389009	243	-0.000946037238463759	dWE(1).Potential/dt < 1E-06 V/s	
25.7057409350992	-0.017315673828125	24.2999999386484	244	-0.000788420264143497	dWE(1).Potential/dt < 1E-06 V/s	
25.8057409348468	-0.01732177734375	24.3999999383959	245	0.000529015902429819		
25.9057409345943	-0.0173370361328125	24.4999999381434	246	-0.00037129339762032	dWE(1).Potential/dt < 1E-06 V/s	
26.0057409343418	-0.0173553466796875	24.599999937891	247	-0.000178031579707749	dWE(1).Potential/dt < 1E-06 V/s	
26.1057409340893	-0.0173431396484375	24.6999999376385	248	0.000386598112527281		
26.2057409338369	-0.0173583984375	24.799999937386	249	-0.000483232113765553	dWE(1).Potential/dt < 1E-06 V/s	
26.3057409335844	-0.0173919677734375	24.8999999371335	250	-0.000396761955926195	dWE(1).Potential/dt < 1E-06 V/s	
26.4057409333319	-0.017413330078125	24.9999999368811	251	-5.0819155148929E-05	dWE(1).Potential/dt < 1E-06 V/s	
26.5057409330794	-0.0175262451171875	25.0999999366286	252	-0.00193278572987765	dWE(1).Potential/dt < 1E-06 V/s	
26.605740932827	-0.017529296875	25.1999999363761	253	0.00119014305528253		
26.7057409325745	-0.0174652099609375	25.2999999361236	254	0.000834179227240384		
26.805740932322	-0.0175537109375	25.3999999358712	255	-0.00238041649572551	dWE(1).Potential/dt < 1E-06 V/s	
26.9057409320695	-0.0175750732421875	25.4999999356187	256	0.000854519312269986		
27.0057409318171	-0.0176116943359375	25.5999999353662	257	-0.000717149232514203	dWE(1).Potential/dt < 1E-06 V/s	
27.1057409315646	-0.01767578125	25.6999999351137	258	-0.000818911765236408	dWE(1).Potential/dt < 1E-06 V/s	
27.2057409313121	-0.017742919921875	25.7999999348613	259	-0.000605247798375785	dWE(1).Potential/dt < 1E-06 V/s	
27.3057409310596	-0.0177276611328125	25.8999999346088	260	0.000849378411658108		
27.4057409308072	-0.01781005859375	25.9999999343563	261	-0.00191240839194506	dWE(1).Potential/dt < 1E-06 V/s	
27.5057409305547	-0.017816162109375	26.0999999341038	262	0.000900265877135098		
27.6057409303022	-0.017828369140625	26.1999999338514	263	-0.000427278282586485	dWE(1).Potential/dt < 1E-06 V/s	
27.7057409300497	-0.0177825927734375	26.2999999335989	264	0.000961335783358663		
27.8057409297973	-0.0177734375	26.3999999333464	265	-0.000406907143769786	dWE(1).Potential/dt < 1E-06 V/s	
27.9057409295448	-0.0178375244140625	26.4999999330939	266	-0.00112915388308465	dWE(1).Potential/dt < 1E-06 V/s	
28.0057409292923	-0.0178619384765625	26.5999999328415	267	0.000330613227561116		
28.1057409290398	-0.0179290771484375	26.699999932589	268	-0.00115969497710466	dWE(1).Potential/dt < 1E-06 V/s	
28.2057409287873	-0.0179779052734375	26.7999999323365	269	-0.000193243176909164	dWE(1).Potential/dt < 1E-06 V/s	
28.3057409285349	-0.0180572509765625	26.899999932084	270	-0.00110882613807917	dWE(1).Potential/dt < 1E-06 V/s	
28.4057409282824	-0.0180755615234375	26.9999999318316	271	0.00042729068081826		
28.5057409280299	-0.0181243896484375	27.0999999315791	272	-0.000946111744269729	dWE(1).Potential/dt < 1E-06 V/s	
28.6057409277774	-0.0181854248046875	27.1999999313266	273	-0.00061034521786496	dWE(1).Potential/dt < 1E-06 V/s	
28.705740927525	-0.018231201171875	27.2999999310741	274	-0.000289933057501912	dWE(1).Potential/dt < 1E-06 V/s	
28.8057409272725	-0.0182708740234375	27.3999999308217	275	-0.000396730902139097	dWE(1).Potential/dt < 1E-06 V/s	
28.90574092702	-0.0182891845703125	27.4999999305692	276	-2.5394056137884E-05	dWE(1).Potential/dt < 1E-06 V/s	
29.0057409267675	-0.018328857421875	27.5999999303167	277	-0.000645977619569749	dWE(1).Potential/dt < 1E-06 V/s	
29.1057409265151	-0.01839599609375	27.6999999300642	278	-0.000829044554848224	dWE(1).Potential/dt < 1E-06 V/s	
29.2057409262626	-0.018438720703125	27.7999999298117	279	-0.00013227881572675	dWE(1).Potential/dt < 1E-06 V/s	
29.3057409260101	-0.0185028076171875	27.8999999295593	280	-0.000900216167792678	dWE(1).Potential/dt < 1E-06 V/s	
29.4057409257576	-0.018560791015625	27.9999999293068	281	-0.000457819434814155	dWE(1).Potential/dt < 1E-06 V/s	
29.5057409255052	-0.01856689453125	28.0999999290543	282	0.000350978138158098		
29.6057409252527	-0.018646240234375	28.1999999288018	283	-0.00157674739602953	dWE(1).Potential/dt < 1E-06 V/s	
29.7057409250002	-0.01868896484375	28.2999999285494	284	0.000122046687465627		
29.8057409247477	-0.018798828125	28.3999999282969	285	-0.00178017921280116	dWE(1).Potential/dt < 1E-06 V/s	
29.9057409244953	-0.018817138671875	28.4999999280444	286	0.00080364424502477		
30.0057409242428	-0.0187469482421875	28.5999999277919	287	0.00113423890434206		
30.1057409239903	-0.0187835693359375	28.6999999275395	288	-0.00155133462976664	dWE(1).Potential/dt < 1E-06 V/s	
30.2057409237378	-0.0183746337890625	28.799999927287	289	0.00815839599817991		
30.3057409234854	-0.0189453125	28.8999999270345	290	-0.0153554258868098	dWE(1).Potential/dt < 1E-06 V/s	
30.4057409232329	-0.0190887451171875	28.999999926782	291	0.00539141288027167		
30.5057409229804	-0.019232177734375	29.0999999265296	292	-0.00285847671329975	dWE(1).Potential/dt < 1E-06 V/s	
30.6057409227279	-0.0196380615234375	29.1999999262771	293	-0.00624590087682009	dWE(1).Potential/dt < 1E-06 V/s	
30.7057409224755	-0.019903564453125	29.2999999260246	294	-0.000610376242548227	dWE(1).Potential/dt < 1E-06 V/s	
30.805740922223	-0.019512939453125	29.3999999257721	295	0.0089060552418232		
30.9057409219705	-0.0192047119140625	29.4999999255197	296	0.000208541707252152		
31.005740921718	-0.019061279296875	29.5999999252672	297	0.000335679622367024		
31.1057409214656	-0.0192230224609375	29.6999999250147	298	-0.00361125823110342	dWE(1).Potential/dt < 1E-06 V/s	
31.2057409212131	-0.0195465087890625	29.7999999247622	299	-0.00356545578688383	dWE(1).Potential/dt < 1E-06 V/s	
31.3057409209606	-0.019622802734375	29.8999999245098	300	0.00183613307308406		
31.4057409207081	-0.0197021484375	29.9999999242573	301	-0.0016428402159363	dWE(1).Potential/dt < 1E-06 V/s	
31.5057409204557	-0.01981201171875	30.0999999240048	302	-0.00134279299527407	dWE(1).Potential/dt < 1E-06 V/s	
31.6057409202032	-0.0199310302734375	30.1999999237523	303	-0.00116469932254404	dWE(1).Potential/dt < 1E-06 V/s	
31.7057409199507	-0.01995849609375	30.2999999234999	304	0.00051877141231671		
31.8057409196982	-0.0200469970703125	30.3999999232474	305	-0.00169882515911013	dWE(1).Potential/dt < 1E-06 V/s	
31.9057409194457	-0.0201171875	30.4999999229949	306	-0.000345868291333318	dWE(1).Potential/dt < 1E-06 V/s	
32.0057409191933	-0.0201080322265625	30.5999999227424	307	0.000691736582666636		
32.1057409189408	-0.020184326171875	30.69999992249	308	-0.0017395238392055	dWE(1).Potential/dt < 1E-06 V/s	
32.2057409186883	-0.0202789306640625	30.7999999222375	309	-0.000813795661088079	dWE(1).Potential/dt < 1E-06 V/s	
32.3057409184358	-0.0203582763671875	30.899999921985	310	-0.000605247798375785	dWE(1).Potential/dt < 1E-06 V/s	
32.4057409181834	-0.020404052734375	30.9999999217325	311	-0.000228869364946149	dWE(1).Potential/dt < 1E-06 V/s	
32.5057409179309	-0.020465087890625	31.09999992148	312	-0.000849390809889883	dWE(1).Potential/dt < 1E-06 V/s	
32.6057409176784	-0.020556640625	31.1999999212276	313	-0.00111896521411836	dWE(1).Potential/dt < 1E-06 V/s	
32.7057409174259	-0.0206207275390625	31.2999999209751	314	-0.000310279341647401	dWE(1).Potential/dt < 1E-06 V/s	
32.8057409171735	-0.020697021484375	31.3999999207226	315	-0.000956194882746786	dWE(1).Potential/dt < 1E-06 V/s	
32.905740916921	-0.0206939697265625	31.4999999204701	316	0.000732454005628824		
33.0057409166685	-0.020684814453125	31.5999999202177	317	-0.000122083947644569	dWE(1).Potential/dt < 1E-06 V/s	
33.105740916416	-0.0207122802734375	31.6999999199652	318	-0.000600212428253144	dWE(1).Potential/dt < 1E-06 V/s	
33.2057409161636	-0.020758056640625	31.7999999197127	319	-0.000488248857436702	dWE(1).Potential/dt < 1E-06 V/s	
33.3057409159111	-0.020806884765625	31.8999999194602	320	-0.000452653708634898	dWE(1).Potential/dt < 1E-06 V/s	
33.4057409156586	-0.0208282470703125	31.9999999192078	321	2.53878479270497E-05		
33.5057409154061	-0.02083740234375	32.0999999189553	322	-8.13541118986905E-05	dWE(1).Potential/dt < 1E-06 V/s	
33.6057409151537	-0.0208984375	32.1999999187028	323	-0.00108339486178011	dWE(1).Potential/dt < 1E-06 V/s	
33.7057409149012	-0.020965576171875	32.2999999184503	324	-0.000549331190995872	dWE(1).Potential/dt < 1E-06 V/s	
33.8057409146487	-0.020989990234375	32.3999999181979	325	0.00013226640294306		
33.9057409143962	-0.0210479736328125	32.4999999179454	326	-0.0010020345216617	dWE(1).Potential/dt < 1E-06 V/s	
34.0057409141438	-0.021051025390625	32.5999999176929	327	0.000539198401384056		
34.1057409138913	-0.0210968017578125	32.6999999174404	328	-0.000996943330392241	dWE(1).Potential/dt < 1E-06 V/s	
34.2057409136388	-0.021124267578125	32.799999917188	329	2.03214531211415E-05		
34.3057409133863	-0.02113037109375	32.8999999169355	330	5.5972472182475E-05		
34.4057409131339	-0.0211578369140625	32.999999916683	331	-0.000523881230037659	dWE(1).Potential/dt < 1E-06 V/s	
34.5057409128814	-0.0211944580078125	33.0999999164305	332	-0.000371330650523305	dWE(1).Potential/dt < 1E-06 V/s	
34.6057409126289	-0.0212249755859375	33.1999999161781	333	-0.000223778130020946	dWE(1).Potential/dt < 1E-06 V/s	
34.7057409123764	-0.0212432861328125	33.2999999159256	334	-0.000101706609711982	dWE(1).Potential/dt < 1E-06 V/s	
34.805740912124	-0.02125244140625	33.3999999156731	335	-5.59786822122987E-05	dWE(1).Potential/dt < 1E-06 V/s	
34.9057409118715	-0.021246337890625	33.4999999154206	336	0.000157679081894457		
35.005740911619	-0.021270751953125	33.5999999151682	337	-0.000549293938092887	dWE(1).Potential/dt < 1E-06 V/s	
35.1057409113665	-0.0212921142578125	33.6999999149157	338	-8.64887988427654E-05	dWE(1).Potential/dt < 1E-06 V/s	
35.205740911114	-0.0212860107421875	33.7999999146632	339	0.000279775442322716		
35.3057409108616	-0.021295166015625	33.8999999144107	340	-0.000310266943415627	dWE(1).Potential/dt < 1E-06 V/s	
35.4057409106091	-0.0212921142578125	33.9999999141583	341	0.000183066935278475		
35.5057409103566	-0.02130126953125	34.0999999139058	342	-0.000233923346968368	dWE(1).Potential/dt < 1E-06 V/s	
35.6057409101041	-0.0213287353515625	34.1999999136533	343	-0.000386591913411394	dWE(1).Potential/dt < 1E-06 V/s	
35.7057409098517	-0.0213287353515625	34.2999999134008	344	0.000289908231934533		
35.8057409095992	-0.021331787109375	34.3999999131483	345	-0.000147496626595967	dWE(1).Potential/dt < 1E-06 V/s	
35.9057409093467	-0.021295166015625	34.4999999128959	346	0.000706997816450894		
36.0057409090942	-0.021319580078125	34.5999999126434	347	-0.000885016983374953	dWE(1).Potential/dt < 1E-06 V/s	
36.1057409088418	-0.02130126953125	34.6999999123909	348	0.000742599193472415		
36.2057409085893	-0.021319580078125	34.7999999121384	349	-0.000630672846455127	dWE(1).Potential/dt < 1E-06 V/s	
36.3057409083368	-0.02132568359375	34.899999911886	350	0.000162757889484055		
36.4057409080843	-0.0212982177734375	34.9999999116335	351	0.000513667764607817		
36.5057409078319	-0.0212921142578125	35.099999911381	352	-0.000228869364946149	dWE(1).Potential/dt < 1E-06 V/s	
36.6057409075794	-0.0212921142578125	35.1999999111285	353	2.03587060241261E-05		
36.7057409073269	-0.021282958984375	35.2999999108761	354	0.00018818920943886		
36.8057409070744	-0.0212799072265625	35.3999999106236	355	-5.08564080519136E-05	dWE(1).Potential/dt < 1E-06 V/s	
36.905740906822	-0.0212677001953125	35.4999999103711	356	0.000218655855860561		
37.0057409065695	-0.0212127685546875	35.5999999101186	357	0.000874884193763137		
37.105740906317	-0.0212066650390625	35.6999999098662	358	-0.000488317164126784	dWE(1).Potential/dt < 1E-06 V/s	
37.2057409060645	-0.021209716796875	35.7999999096137	359	5.59662657906301E-05		
37.3057409058121	-0.02122802734375	35.8999999093612	360	-0.000279731990303844	dWE(1).Potential/dt < 1E-06 V/s	
37.4057409055596	-0.02125244140625	35.9999999091087	361	-0.000244167895289138	dWE(1).Potential/dt < 1E-06 V/s	
37.5057409053071	-0.0212615966796875	36.0999999088563	362	5.59538457309827E-05		
37.6057409050546	-0.0212554931640625	36.1999999086038	363	0.00013735142420046		
37.7057409048022	-0.0212249755859375	36.2999999083513	364	0.000457751157227904		
37.8057409045497	-0.0212158203125	36.3999999080988	365	-0.000167855338077061	dWE(1).Potential/dt < 1E-06 V/s	
37.9057409042972	-0.0211944580078125	36.4999999078464	366	0.000386585685191676		
38.0057409040447	-0.0211639404296875	36.5999999075939	367	0.000340764643624425		
38.1057409037923	-0.0211517333984375	36.6999999073414	368	-6.10140305070672E-05	dWE(1).Potential/dt < 1E-06 V/s	
38.2057409035398	-0.021173095703125	36.7999999070889	369	-0.000432332250056788	dWE(1).Potential/dt < 1E-06 V/s	
38.3057409032873	-0.0211700439453125	36.8999999068365	370	0.000345831038430333		
38.4057409030348	-0.0211669921875	36.999999906584	371	-5.08005286974367E-05	dWE(1).Potential/dt < 1E-06 V/s	
38.5057409027823	-0.021148681640625	37.0999999063315	372	0.00031023588962853		
38.6057409025299	-0.0211517333984375	37.199999906079	373	-0.00025937327882275	dWE(1).Potential/dt < 1E-06 V/s	
38.7057409022774	-0.021142578125	37.2999999058266	374	0.00026448312564753		
38.8057409020249	-0.0211090087890625	37.3999999055741	375	0.000498418870847672		
38.9057409017724	-0.02110595703125	37.4999999053216	376	-0.000305113615468144	dWE(1).Potential/dt < 1E-06 V/s	
39.00574090152	-0.02110595703125	37.5999999050691	377	7.62877170927823E-05		
39.1057409012675	-0.021063232421875	37.6999999048167	378	0.000793443177826703		
39.205740901015	-0.0210693359375	37.7999999045642	379	-0.000610338989645243	dWE(1).Potential/dt < 1E-06 V/s	
39.3057409007625	-0.0210693359375	37.8999999043117	380	0.000213595674722455		
39.4057409005101	-0.021014404296875	37.9999999040592	381	0.000986760831438005		
39.5057409002576	-0.02100830078125	38.0999999038067	382	-0.000529003504198045	dWE(1).Potential/dt < 1E-06 V/s	
39.6057409000051	-0.0209991455078125	38.1999999035543	383	0.000279781641438603		
39.7057408997526	-0.0209686279296875	38.2999999033018	384	0.000473024818347767		
39.8057408995002	-0.0209442138671875	38.3999999030493	385	0.000122077733976766		
39.9057408992477	-0.02093505859375	38.4999999027968	386	-1.5286104826373E-05	dWE(1).Potential/dt < 1E-06 V/s	
40.0057408989952	-0.0208953857421875	38.5999999025444	387	0.000701906625181437		
40.1057408987427	-0.0208953857421875	38.6999999022919	388	-0.000432313623605296	dWE(1).Potential/dt < 1E-06 V/s	
40.2057408984903	-0.0208648681640625	38.7999999020394	389	0.000691736582666636		
40.3057408982378	-0.02083740234375	38.8999999017869	390	0.000147527665831149		
40.4057408979853	-0.0207977294921875	38.9999999015345	391	0.000508582743350416		
40.5057408977328	-0.020751953125	39.099999901282	392	0.000467952224425972		
40.6057408974804	-0.0207275390625	39.1999999010295	393	4.57651804026682E-05		
40.7057408972279	-0.02069091796875	39.299999900777	394	0.000539173546712846		
40.8057408969754	-0.020654296875	39.3999999005246	395	0.000325515778968111		
40.9057408967229	-0.0206207275390625	39.4999999002721	396	0.000310223462292925		
41.0057408964705	-0.02060546875	39.5999999000196	397	1.02072926893015E-05		
41.105740896218	-0.0205535888671875	39.6999998997671	398	0.000885023211594671		
41.2057408959655	-0.0204864501953125	39.7999998995147	399	0.000676469120662659		
41.305740895713	-0.0204742431640625	39.8999998992622	400	-0.000386604311643168	dWE(1).Potential/dt < 1E-06 V/s	
41.4057408954606	-0.0204376220703125	39.9999998990097	401	0.000752781634218991		
41.5057408952081	-0.0203582763671875	40.0999998987572	402	0.0010681584244594		
41.6057408949556	-0.0203369140625	40.1999998985048	403	-0.000412029417930171	dWE(1).Potential/dt < 1E-06 V/s	
41.7057408947031	-0.0202667236328125	40.2999998982523	404	0.00130211899522692		
41.8057408944507	-0.0202178955078125	40.3999998979998	405	0.000147484213812277		
41.9057408941982	-0.0201812744140625	40.4999998977473	406	0.000335710676154122		
42.0057408939457	-0.0201171875	40.5999998974949	407	0.000910398666746914		
42.1057408936932	-0.0200775146484375	40.6999998972424	408	0.000101750069006812		
42.2057408934407	-0.0200164794921875	40.7999998969899	409	0.000869724666699767		
42.3057408931883	-0.0199554443359375	40.8999998967374	410	0.000539130065590143		
42.4057408929358	-0.019891357421875	40.999999896485	411	0.000666317704599351		
42.5057408926833	-0.0198394775390625	41.0999998962325	412	0.000406888517318293		
42.6057408924308	-0.019793701171875	41.19999989598	413	0.000447618367616087		
42.7057408921784	-0.0196990966796875	41.2999998957275	414	0.00137328449636698		
42.8057408919259	-0.0196014404296875	41.399999895475	415	0.000839245622046292		
42.9057408916734	-0.0195404052734375	41.4999998952226	416	0.000294980825856328		
43.0057408914209	-0.0194427490234375	41.5999998949701	417	0.00140381325036287		
43.1057408911685	-0.0193939208984375	41.6999998947176	418	-4.06863691750914E-05	dWE(1).Potential/dt < 1E-06 V/s	
43.205740890916	-0.0193084716796875	41.7999998944651	419	0.00132242182735354		
43.3057408906635	-0.0192413330078125	41.8999998942127	420	0.000396755727706477		
43.405740890411	-0.0191558837890625	41.9999998939602	421	0.00106809008866549		
43.5057408901586	-0.019049072265625	42.0999998937077	422	0.00118512008339167		
43.6057408899061	-0.018951416015625	42.1999998934552	423	0.000829075579531491		
43.7057408896536	-0.0188873291015625	42.2999998932028	424	0.000391608627978712		
43.8057408894011	-0.01876220703125	42.3999998929503	425	0.00187176547478884		
43.9057408891487	-0.0186737060546875	42.4999998926978	426	0.000376328738639131		
44.0057408888962	-0.0185699462890625	42.5999998924453	427	0.0012868515914306		
44.1057408886437	-0.01846923828125	42.6999998921929	428	0.000930769776459783		
44.2057408883912	-0.0183990478515625	42.7999998919404	429	0.000457775982795283		
44.3057408881388	-0.018310546875	42.8999998916879	430	0.00113931763917208		
44.4057408878863	-0.0181915283203125	42.9999998914354	431	0.00138347933534533		
44.5057408876338	-0.0181060791015625	43.099999891183	432	0.000473024818347767		
44.6057408873813	-0.01798095703125	43.1999998909305	433	0.00169369042851031		
44.7057408871289	-0.017901611328125	43.299999890678	434	0.000279806496109813		
44.8057408868764	-0.017779541015625	43.3999998904255	435	0.0017293228302151		
44.9057408866239	-0.017669677734375	43.4999998901731	436	0.000854488287586719		
45.0057408863714	-0.017578125	43.5999998899206	437	0.000803631846792996		
45.105740886119	-0.0174407958984375	43.6999998896681	438	0.00181579298805445		
45.2057408858665	-0.017352294921875	43.7999998894156	439	0.000325540633639321		
45.305740885614	-0.0172393798828125	43.8999998891632	440	0.00149533117655665		
45.4057408853615	-0.0171234130859375	43.9999998889107	441	0.0011037535732612		
45.505740885109	-0.017022705078125	44.0999998886582	442	0.000869743293151259		
45.6057408848566	-0.0169097900390625	44.1999998884057	443	0.00128173548728228		
45.7057408846041	-0.0168365478515625	44.2999998881533	444	0.000361117126885802		
45.8057408843516	-0.0167205810546875	44.3999998879008	445	0.00164796249009669		
45.9057408840991	-0.016619873046875	44.4999998876483	446	0.000737520400434732		
46.0057408838467	-0.01651611328125	44.5999998873958	447	0.00111386773642153		
46.1057408835942	-0.0165679931640625	44.6999998871433	448	-0.00182595057412982	dWE(1).Potential/dt < 1E-06 V/s	
46.2057408833417	-0.0162200927734375	44.7999998868909	449	0.00732929585501552		
46.3057408830892	-0.016168212890625	44.8999998866384	450	-0.00328063266351819	dWE(1).Potential/dt < 1E-06 V/s	
46.4057408828368	-0.016119384765625	44.9999998863859	451	0.00144954735878855		
46.5057408825843	-0.0160369873046875	45.0999998861334	452	0.00111393607221544		
46.6057408823318	-0.01595458984375	45.199999885881	453	0.00071207043947652		
46.7057408820793	-0.0158721923828125	45.2999998856285	454	0.00082396570360288		
46.8057408818269	-0.0157958984375	45.399999885376	455	0.000712101464159787		
46.9057408815744	-0.01571044921875	45.4999998851235	456	0.000951134657952935		
47.0057408813219	-0.01563720703125	45.5999998848711	457	0.000600131694227457		
47.1057408810694	-0.015576171875	45.6999998846186	458	0.000549343589227647		
47.205740880817	-0.0155242919921875	45.7999998843661	459	0.000483188661746681		
47.3057408805645	-0.0154510498046875	45.8999998841136	460	0.000940995698329061		
47.405740880312	-0.0153961181640625	45.9999998838612	461	0.000325475441059098		
47.5057408800595	-0.0153564453125	46.0999998836087	462	0.000330613227561116		
47.6057408798071	-0.0152862548828125	46.1999998833562	463	0.00100711337290704		
47.7057408795546	-0.015216064453125	46.2999998831037	464	0.000600168947130442		
47.8057408793021	-0.0152008056640625	46.3999998828513	465	-0.000305194320390001	dWE(1).Potential/dt < 1E-06 V/s	
47.9057408790496	-0.01513671875	46.4999998825988	466	0.00123086979147047		
48.0057408787972	-0.0151123046875	46.5999998823463	467	-0.000249231175985187	dWE(1).Potential/dt < 1E-06 V/s	
48.1057408785447	-0.0150665283203125	46.6999998820938	468	0.000768046011216938		
48.2057408782922	-0.0150115966796875	46.7999998818414	469	0.000554422382265329		
48.3057408780397	-0.0149871826171875	46.8999998815889	470	-4.069878559676E-05	dWE(1).Potential/dt < 1E-06 V/s	
48.4057408777873	-0.0149505615234375	46.9999998813364	471	0.000569652649573982		
48.5057408775348	-0.01492919921875	47.0999998810839	472	4.57807036582381E-05		
48.6057408772823	-0.01494140625	47.1999998808315	473	-0.000350931572029367	dWE(1).Potential/dt < 1E-06 V/s	
48.7057408770298	-0.014923095703125	47.299999880579	474	0.000549290794879198		
48.8057408767773	-0.0149200439453125	47.3999998803265	475	-0.000198353038285859	dWE(1).Potential/dt < 1E-06 V/s	
48.9057408765249	-0.0148956298828125	47.499999880074	476	0.000473027932457626		
49.0057408762724	-0.014874267578125	47.5999998798216	477	0.000116974086267874		
49.1057408760199	-0.0148590087890625	47.6999998795691	478	0.000111917004687712		
49.2057408757674	-0.01485595703125	47.7999998793166	479	-5.08470948261674E-05	dWE(1).Potential/dt < 1E-06 V/s	
49.305740875515	-0.014862060546875	47.8999998790641	480	-9.66743609751575E-05	dWE(1).Potential/dt < 1E-06 V/s	
49.4057408752625	-0.0148590087890625	47.9999998788116	481	0.000137348310090601		
49.50574087501	-0.01483154296875	48.0999998785592	482	0.000447599741164595		
49.6057408747575	-0.0148773193359375	48.1999998783067	483	-0.00114950013812631	dWE(1).Potential/dt < 1E-06 V/s	
49.7057408745051	-0.0149200439453125	48.2999998780542	484	-0.000157669768668711	dWE(1).Potential/dt < 1E-06 V/s	
49.8057408742526	-0.014947509765625	48.3999998778017	485	-0.000157654241775163	dWE(1).Potential/dt < 1E-06 V/s	
49.9057408740001	-0.0149444580078125	48.4999998775493	486	0.000233923346968368		
50.0057408737476	-0.0149444580078125	48.5999998772968	487	-0.000127122402773239	dWE(1).Potential/dt < 1E-06 V/s	
50.1057408734952	-0.01495361328125	48.6999998770443	488	-0.000157660455442965	dWE(1).Potential/dt < 1E-06 V/s	
50.2057408732427	-0.014971923828125	48.7999998767918	489	-0.000228900404181331	dWE(1).Potential/dt < 1E-06 V/s	
50.3057408729902	-0.0150115966796875	48.8999998765394	490	-0.000544233713299036	dWE(1).Potential/dt < 1E-06 V/s	
50.4057408727377	-0.0150421142578125	48.9999998762869	491	-0.000157654241775163	dWE(1).Potential/dt < 1E-06 V/s	
50.5057408724853	-0.0150848388671875	49.0999998760344	492	-0.000559473293833435	dWE(1).Potential/dt < 1E-06 V/s	
50.6057408722328	-0.01513671875	49.1999998757819	493	-0.000554437923710793	dWE(1).Potential/dt < 1E-06 V/s	
50.7057408719803	-0.0151458740234375	49.2999998755295	494	0.000295027391985059		
50.8057408717278	-0.015179443359375	49.399999875277	495	-0.000681585166603327	dWE(1).Potential/dt < 1E-06 V/s	
50.9057408714754	-0.015228271484375	49.4999998750245	496	-0.000534032646100968	dWE(1).Potential/dt < 1E-06 V/s	
51.0057408712229	-0.0152496337890625	49.599999874772	497	6.61052617942914E-05		
51.1057408709704	-0.0153106689453125	49.6999998745196	498	-0.00103249191306531	dWE(1).Potential/dt < 1E-06 V/s	
51.2057408707179	-0.0153533935546875	49.7999998742671	499	-0.000142405391670763	dWE(1).Potential/dt < 1E-06 V/s	
51.3057408704655	-0.01539306640625	49.8999998740146	500	-0.000432350876508281	dWE(1).Potential/dt < 1E-06 V/s	
51.405740870213	-0.0154296875	49.9999998737621	501	-0.000350940885255113	dWE(1).Potential/dt < 1E-06 V/s	
51.5057408699605	-0.01546630859375	50.0999998735097	502	-0.000376387732103467	dWE(1).Potential/dt < 1E-06 V/s	
51.605740869708	-0.015521240234375	50.1999998732572	503	-0.000701934564858675	dWE(1).Potential/dt < 1E-06 V/s	
51.7057408694556	-0.015570068359375	50.2999998730047	504	-0.000376387732103467	dWE(1).Potential/dt < 1E-06 V/s	
51.8057408692031	-0.0156280517578125	50.3999998727522	505	-0.000676419411320239	dWE(1).Potential/dt < 1E-06 V/s	
51.9057408689506	-0.0157196044921875	50.4999998724998	506	-0.0011647583451122	dWE(1).Potential/dt < 1E-06 V/s	
52.0057408686981	-0.015728759765625	50.5999998722473	507	0.000706966791767627		
52.1057408684457	-0.0157867431640625	50.6999998719948	508	-0.00126137060578912	dWE(1).Potential/dt < 1E-06 V/s	
52.2057408681932	-0.015850830078125	50.7999998717423	509	-0.000529028358869255	dWE(1).Potential/dt < 1E-06 V/s	
52.3057408679407	-0.015887451171875	50.8999998714899	510	-0.000116936833364889	dWE(1).Potential/dt < 1E-06 V/s	
52.4057408676882	-0.015911865234375	50.9999998712374	511	-0.000234004051890224	dWE(1).Potential/dt < 1E-06 V/s	
52.5057408674357	-0.0159637451171875	51.0999998709849	512	-0.000788333301898092	dWE(1).Potential/dt < 1E-06 V/s	
52.6057408671833	-0.016033935546875	51.1999998707324	513	-0.000762976531405002	dWE(1).Potential/dt < 1E-06 V/s	
52.7057408669308	-0.01612548828125	51.29999987048	514	-0.0010325136827305	dWE(1).Potential/dt < 1E-06 V/s	
52.8057408666783	-0.0161590576171875	51.3999998702275	515	0.000218711735215038		
52.9057408664258	-0.0162322998046875	51.499999869975	516	-0.00125632900744677	dWE(1).Potential/dt < 1E-06 V/s	
53.0057408661734	-0.01627197265625	51.5999998697225	517	1.5261268345057E-05		
53.1057408659209	-0.0163330078125	51.69999986947	518	-0.000900253420695662	dWE(1).Potential/dt < 1E-06 V/s	
53.2057408656684	-0.0164031982421875	51.7999998692176	519	-0.000706973019987345	dWE(1).Potential/dt < 1E-06 V/s	
53.3057408654159	-0.0164581298828125	51.8999998689651	520	-0.000391645880881697	dWE(1).Potential/dt < 1E-06 V/s	
53.4057408651635	-0.0165252685546875	51.9999998687126	521	-0.000824002956505865	dWE(1).Potential/dt < 1E-06 V/s	
53.505740864911	-0.0165802001953125	52.0999998684601	522	-0.000406876119086519	dWE(1).Potential/dt < 1E-06 V/s	
53.6057408646585	-0.0166259765625	52.1999998682077	523	-0.00042218083399348	dWE(1).Potential/dt < 1E-06 V/s	
53.705740864406	-0.01669921875	52.2999998679552	524	-0.000991845852695405	dWE(1).Potential/dt < 1E-06 V/s	
53.8057408641536	-0.0167388916015625	52.3999998677027	525	-2.53878479270497E-05	dWE(1).Potential/dt < 1E-06 V/s	
53.9057408639011	-0.016827392578125	52.4999998674502	526	-0.00140384421683848	dWE(1).Potential/dt < 1E-06 V/s	
54.0057408636486	-0.016864013671875	52.5999998671978	527	0.000228912831516936		
54.1057408633961	-0.01689453125	52.6999998669453	528	-0.000427241029683501	dWE(1).Potential/dt < 1E-06 V/s	
54.2057408631437	-0.0169647216796875	52.7999998666928	529	-0.00105287856422365	dWE(1).Potential/dt < 1E-06 V/s	
54.3057408628912	-0.01702880859375	52.8999998664403	530	-0.000457751157227904	dWE(1).Potential/dt < 1E-06 V/s	
54.4057408626387	-0.017041015625	52.9999998661879	531	0.00028988960548304		
54.5057408623862	-0.0170867919921875	53.0999998659354	532	-0.000910448317881674	dWE(1).Potential/dt < 1E-06 V/s	
54.6057408621338	-0.01712646484375	53.1999998656829	533	-0.000233973012655042	dWE(1).Potential/dt < 1E-06 V/s	
54.7057408618813	-0.0171783447265625	53.2999998654304	534	-0.00064086151542142	dWE(1).Potential/dt < 1E-06 V/s	
54.8057408616288	-0.0172271728515625	53.399999865178	535	-0.000422162207541987	dWE(1).Potential/dt < 1E-06 V/s	
54.9057408613763	-0.0172637939453125	53.4999998649255	536	-0.000274671794613823	dWE(1).Potential/dt < 1E-06 V/s	
55.0057408611239	-0.0173126220703125	53.599999864673	537	-0.000630654220003635	dWE(1).Potential/dt < 1E-06 V/s	
55.1057408608714	-0.0173614501953125	53.6999998644205	538	-0.000447655620519072	dWE(1).Potential/dt < 1E-06 V/s	
55.2057408606189	-0.0174102783203125	53.7999998641681	539	-0.000488255056552589	dWE(1).Potential/dt < 1E-06 V/s	
55.3057408603664	-0.0174346923828125	53.8999998639156	540	-4.06863691750914E-05	dWE(1).Potential/dt < 1E-06 V/s	
55.405740860114	-0.01746826171875	53.9999998636631	541	-0.000493414583615959	dWE(1).Potential/dt < 1E-06 V/s	
55.5057408598615	-0.0175140380859375	54.0999998634106	542	-0.00052896625129506	dWE(1).Potential/dt < 1E-06 V/s	
55.605740859609	-0.0175537109375	54.1999998631582	543	-0.000305181922158226	dWE(1).Potential/dt < 1E-06 V/s	
55.7057408593565	-0.0175933837890625	54.2999998629057	544	-0.00041704616160132	dWE(1).Potential/dt < 1E-06 V/s	
55.805740859104	-0.017626953125	54.3999998626532	545	-0.000284823210677132	dWE(1).Potential/dt < 1E-06 V/s	
55.9057408588516	-0.0176666259765625	54.4999998624007	546	-0.000467964651761577	dWE(1).Potential/dt < 1E-06 V/s	
56.0057408585991	-0.01771240234375	54.5999998621483	547	-0.000488286081235856	dWE(1).Potential/dt < 1E-06 V/s	
56.1057408583466	-0.0177490234375	54.6999998618958	548	-0.000269549520453438	dWE(1).Potential/dt < 1E-06 V/s	
56.2057408580941	-0.0177734375	54.7999998616433	549	-0.000172965184901841	dWE(1).Potential/dt < 1E-06 V/s	
56.3057408578417	-0.017816162109375	54.8999998613908	550	-0.000620496633928269	dWE(1).Potential/dt < 1E-06 V/s	
56.4057408575892	-0.0178375244140625	54.9999998611383	551	2.5394056137884E-05		
56.5057408573367	-0.0178619384765625	55.0999998608859	552	-0.00034075221628882	dWE(1).Potential/dt < 1E-06 V/s	
56.6057408570842	-0.0178955078125	55.1999998606334	553	-0.000401865603635088	dWE(1).Potential/dt < 1E-06 V/s	
56.7057408568318	-0.017919921875	55.2999998603809	554	-0.000137314171297476	dWE(1).Potential/dt < 1E-06 V/s	
56.8057408565793	-0.017919921875	55.3999998601284	555	0.000172946558450349		
56.9057408563268	-0.0179443359375	55.499999859876	556	-0.000528953853063285	dWE(1).Potential/dt < 1E-06 V/s	
57.0057408560743	-0.017962646484375	55.5999998596235	557	-5.08564080519136E-05	dWE(1).Potential/dt < 1E-06 V/s	
57.1057408558219	-0.01798095703125	55.699999859371	558	-0.000203469098778442	dWE(1).Potential/dt < 1E-06 V/s	
57.2057408555694	-0.01800537109375	55.7999998591185	559	-0.000294968427624553	dWE(1).Potential/dt < 1E-06 V/s	
57.3057408553169	-0.01806640625	55.8999998588661	560	-0.00089519948232919	dWE(1).Potential/dt < 1E-06 V/s	
57.4057408550644	-0.018084716796875	55.9999998586136	561	0.00029502430697903		
57.505740854812	-0.0180816650390625	56.0999998583611	562	6.61114681861363E-05		
57.6057408545595	-0.0180908203125	56.1999998581086	563	-0.000264470727415755	dWE(1).Potential/dt < 1E-06 V/s	
57.705740854307	-0.0181121826171875	56.2999998578562	564	-0.000274690421065316	dWE(1).Potential/dt < 1E-06 V/s	
57.8057408540545	-0.0181304931640625	56.3999998576037	565	-0.000116949253424536	dWE(1).Potential/dt < 1E-06 V/s	
57.9057408538021	-0.0181182861328125	56.4999998573512	566	0.000366189749911427		
58.0057408535496	-0.0181549072265625	56.5999998570987	567	-0.000874822144396603	dWE(1).Potential/dt < 1E-06 V/s	
58.1057408532971	-0.018206787109375	56.6999998568463	568	-0.000483182462630793	dWE(1).Potential/dt < 1E-06 V/s	
58.2057408530446	-0.018212890625	56.7999998565938	569	0.00037129339762032		
58.3057408527922	-0.0182159423828125	56.8999998563413	570	-0.000157716334797442	dWE(1).Potential/dt < 1E-06 V/s	
58.4057408525397	-0.0182342529296875	56.9999998560888	571	-0.000320412131259218	dWE(1).Potential/dt < 1E-06 V/s	
58.5057408522872	-0.0182403564453125	57.0999998558364	572	9.15365671971813E-05		
58.6057408520347	-0.01824951171875	57.1999998555839	573	-0.000157641828991473	dWE(1).Potential/dt < 1E-06 V/s	
58.7057408517823	-0.0182708740234375	57.2999998553314	574	-0.000305200548609719	dWE(1).Potential/dt < 1E-06 V/s	
58.8057408515298	-0.018280029296875	57.3999998550789	575	5.08936609548982E-05		
58.9057408512773	-0.0182708740234375	57.4999998548265	576	0.000203425632207654		
59.0057408510248	-0.018292236328125	57.599999854574	577	-0.000528960081283003	dWE(1).Potential/dt < 1E-06 V/s	
59.1057408507723	-0.0182830810546875	57.6999998543215	578	0.000447605940280482		
59.2057408505199	-0.0183013916015625	57.799999854069	579	-0.000513736042194068	dWE(1).Potential/dt < 1E-06 V/s	
59.3057408502674	-0.018292236328125	57.8999998538166	580	0.000412004592362791		
59.4057408500149	-0.0182891845703125	57.9999998535641	581	-0.000111895278678276	dWE(1).Potential/dt < 1E-06 V/s	
59.5057408497624	-0.0182891845703125	58.0999998533116	582	-5.10985546497977E-06	dWE(1).Potential/dt < 1E-06 V/s	
59.60574084951	-0.018316650390625	58.1999998530591	583	-0.000493389728944749	dWE(1).Potential/dt < 1E-06 V/s	
59.7057408492575	-0.018310546875	58.2999998528066	584	0.00043237570207566		
59.805740849005	-0.0182952880859375	58.3999998525542	585	0.000116967879876029		
59.9057408487525	-0.0183074951171875	58.4999998523017	586	-0.000381488265702501	dWE(1).Potential/dt < 1E-06 V/s	
60.0057408485001	-0.01832275390625	58.5999998520492	587	-8.64763860590756E-05	dWE(1).Potential/dt < 1E-06 V/s	
60.1057408482476	-0.018304443359375	58.6999998517967	588	0.000473037245683372		
60.2057408479951	-0.0183319091796875	58.7999998515443	589	-0.00076806778088212	dWE(1).Potential/dt < 1E-06 V/s	
60.3057408477426	-0.0183441162109375	58.8999998512918	590	0.000157741174916737		
60.4057408474902	-0.018365478515625	58.9999998510393	591	-0.000340795697411522	dWE(1).Potential/dt < 1E-06 V/s	
60.5057408472377	-0.018377685546875	59.0999998507868	592	-1.52923130372074E-05	dWE(1).Potential/dt < 1E-06 V/s	
60.6057408469852	-0.018389892578125	59.1999998505344	593	-0.00015252576849889	dWE(1).Potential/dt < 1E-06 V/s	
60.7057408467327	-0.01837158203125	59.2999998502819	594	0.000437392445746809		
60.8057408464803	-0.0183746337890625	59.3999998500294	595	-0.00031023588962853	dWE(1).Potential/dt < 1E-06 V/s	
60.9057408462278	-0.018377685546875	59.4999998497769	596	4.06677427235991E-05		
61.0057408459753	-0.018377685546875	59.5999998495245	597	2.54561437031953E-05		
61.1057408457228	-0.018377685546875	59.699999849272	598	-1.01700397863169E-05	dWE(1).Potential/dt < 1E-06 V/s	
61.2057408454704	-0.0183624267578125	59.7999998490195	599	0.000279750616755337		
61.3057408452179	-0.018359375	59.899999848767	600	-0.000122034274681937	dWE(1).Potential/dt < 1E-06 V/s	
