Time (s)	WE(1).Potential (V)	Corrected time (s)	Index	dWE(1).Potential/dt (V/s)	Cutoffs	OCP value (V)
1.50774199619332	-0.057891845703125	0	1	0	dWE(1).Potential/dt < 1E-06 V/s	-0.0486064237706801
1.60774199594084	-0.057830810546875	0.0999999997475243	2	0.000610352144576609		
1.70774199568837	-0.057769775390625	0.199999999495049	3	0.000610352144576609		
1.80774199543589	-0.057708740234375	0.299999999242573	4	0.000610352144576609		
1.90774199518341	-0.05767822265625	0.399999998990097	5	5.0862679927377E-05		
2.00774199493094	-0.0576171875	0.499999998737621	6	0.000966390885878354		
2.10774199467846	-0.057586669921875	0.599999998485146	7	-5.0862679927377E-05	dWE(1).Potential/dt < 1E-06 V/s	
2.20774199442599	-0.057525634765625	0.69999999823267	8	0.000966390885878354		
2.30774199417351	-0.057464599609375	0.799999997980194	9	0.000508626806549728		
2.40774199392104	-0.057403564453125	0.899999997727718	10	0.000610352144576609		
2.50774199366856	-0.057373046875	0.999999997475243	11	5.0862679927377E-05		
2.60774199341608	-0.05731201171875	1.09999999722277	12	0.000966390885878354		
2.70774199316361	-0.0572509765625	1.19999999697029	13	0.000508626806549728		
2.80774199291113	-0.057220458984375	1.29999999671782	14	5.0862679927377E-05		
2.90774199265866	-0.057159423828125	1.39999999646534	15	0.000966390885878354		
3.00774199240618	-0.05712890625	1.49999999621286	16	-5.0862679927377E-05	dWE(1).Potential/dt < 1E-06 V/s	
3.10774199215371	-0.05706787109375	1.59999999596039	17	0.000966390885878354		
3.20774199190123	-0.0570068359375	1.69999999570791	18	0.000508626806549728		
3.30774199164875	-0.05694580078125	1.79999999545544	19	0.000610352144576609		
3.40774199139628	-0.056884765625	1.89999999520296	20	0.000610352144576609		
3.5077419911438	-0.056854248046875	1.99999999495049	21	5.0862679927377E-05		
3.60774199089133	-0.056793212890625	2.09999999469801	22	0.000966390885878354		
3.70774199063885	-0.056732177734375	2.19999999444553	23	0.000508626806549728		
3.80774199038638	-0.05670166015625	2.29999999419306	24	5.0862679927377E-05		
3.9077419901339	-0.056640625	2.39999999394058	25	0.000966390885878354		
4.00774198988142	-0.05657958984375	2.49999999368811	26	0.000508626806549728		
4.10774198962895	-0.0565185546875	2.59999999343563	27	0.000610352144576609		
4.20774198937647	-0.056488037109375	2.69999999318316	28	5.0862679927377E-05		
4.307741989124	-0.056427001953125	2.79999999293068	29	0.000966390885878354		
4.40774198887152	-0.056365966796875	2.8999999926782	30	0.000508626806549728		
4.50774198861905	-0.056304931640625	2.99999999242573	31	0.000610352144576609		
4.60774198836657	-0.0562744140625	3.09999999217325	32	5.0862679927377E-05		
4.70774198811409	-0.05621337890625	3.19999999192078	33	0.000966390885878354		
4.80774198786162	-0.05615234375	3.2999999916683	34	0.000508626806549728		
4.90774198760914	-0.056121826171875	3.39999999141583	35	5.0862679927377E-05		
5.00774198735667	-0.056060791015625	3.49999999116335	36	0.000966390885878354		
5.10774198710419	-0.055999755859375	3.59999999091087	37	0.000508626806549728		
5.20774198685172	-0.05596923828125	3.6999999906584	38	5.0862679927377E-05		
5.30774198659924	-0.055908203125	3.79999999040592	39	0.000966390885878354		
5.40774198634676	-0.055877685546875	3.89999999015345	40	-5.0862679927377E-05	dWE(1).Potential/dt < 1E-06 V/s	
5.50774198609429	-0.055816650390625	3.99999998990097	41	0.000966390885878354		
5.60774198584181	-0.055755615234375	4.0999999896485	42	0.000508626806549728		
5.70774198558934	-0.05572509765625	4.19999998939602	43	5.0862679927377E-05		
5.80774198533686	-0.0556640625	4.29999998914354	44	0.000966390885878354		
5.90774198508439	-0.05560302734375	4.39999998889107	45	0.000508626806549728		
6.00774198483191	-0.055572509765625	4.49999998863859	46	5.0862679927377E-05		
6.10774198457943	-0.055511474609375	4.59999998838612	47	0.000966390885878354		
6.20774198432696	-0.05548095703125	4.69999998813364	48	-5.0862679927377E-05	dWE(1).Potential/dt < 1E-06 V/s	
6.30774198407448	-0.055419921875	4.79999998788116	49	0.000966390885878354		
6.40774198382201	-0.055389404296875	4.89999998762869	50	-5.0862679927377E-05	dWE(1).Potential/dt < 1E-06 V/s	
6.50774198356953	-0.055328369140625	4.99999998737621	51	0.000966390885878354		
6.60774198331706	-0.055267333984375	5.09999998712374	52	0.000508626806549728		
6.70774198306458	-0.05523681640625	5.19999998687126	53	5.0862679927377E-05		
6.8077419828121	-0.05517578125	5.29999998661879	54	0.000966390885878354		
6.90774198255963	-0.055145263671875	5.39999998636631	55	-5.0862679927377E-05	dWE(1).Potential/dt < 1E-06 V/s	
7.00774198230715	-0.055084228515625	5.49999998611383	56	0.000966390885878354		
7.10774198205468	-0.0550537109375	5.59999998586136	57	-5.0862679927377E-05	dWE(1).Potential/dt < 1E-06 V/s	
7.2077419818022	-0.05499267578125	5.69999998560888	58	0.000966390885878354		
7.30774198154973	-0.054962158203125	5.79999998535641	59	-5.0862679927377E-05	dWE(1).Potential/dt < 1E-06 V/s	
7.40774198129725	-0.054901123046875	5.89999998510393	60	0.000966390885878354		
7.50774198104477	-0.054840087890625	5.99999998485146	61	0.000508626806549728		
7.6077419807923	-0.0548095703125	6.09999998459898	62	5.0862679927377E-05		
7.70774198053982	-0.05474853515625	6.1999999843465	63	0.000966390885878354		
7.80774198028735	-0.054718017578125	6.29999998409403	64	-5.0862679927377E-05	dWE(1).Potential/dt < 1E-06 V/s	
7.90774198003487	-0.054656982421875	6.39999998384155	65	0.000966390885878354		
8.00774197978239	-0.05462646484375	6.49999998358908	66	-5.0862679927377E-05	dWE(1).Potential/dt < 1E-06 V/s	
8.10774197952992	-0.0545654296875	6.5999999833366	67	0.000966390885878354		
8.20774197927744	-0.054534912109375	6.69999998308413	68	-5.0862679927377E-05	dWE(1).Potential/dt < 1E-06 V/s	
8.30774197902497	-0.054473876953125	6.79999998283165	69	0.000966390885878354		
8.40774197877249	-0.054443359375	6.89999998257917	70	-5.0862679927377E-05	dWE(1).Potential/dt < 1E-06 V/s	
8.50774197852002	-0.05438232421875	6.9999999823267	71	0.000966390885878354		
8.60774197826754	-0.054351806640625	7.09999998207422	72	-5.0862679927377E-05	dWE(1).Potential/dt < 1E-06 V/s	
8.70774197801506	-0.054290771484375	7.19999998182175	73	0.000966390885878354		
8.80774197776259	-0.05426025390625	7.29999998156927	74	-5.0862679927377E-05	dWE(1).Potential/dt < 1E-06 V/s	
8.90774197751011	-0.05419921875	7.3999999813168	75	0.000966390885878354		
9.00774197725764	-0.054168701171875	7.49999998106432	76	-5.0862679927377E-05	dWE(1).Potential/dt < 1E-06 V/s	
9.10774197700516	-0.054107666015625	7.59999998081184	77	0.000966390885878354		
9.20774197675269	-0.0540771484375	7.69999998055937	78	-5.0862679927377E-05	dWE(1).Potential/dt < 1E-06 V/s	
9.30774197650021	-0.05401611328125	7.79999998030689	79	0.000966390885878354		
9.40774197624773	-0.053955078125	7.89999998005442	80	0.000508626806549728		
9.50774197599526	-0.053924560546875	7.99999997980194	81	5.0862679927377E-05		
9.60774197574278	-0.05389404296875	8.09999997954947	82	0.000406901439419016		
9.70774197549031	-0.0538330078125	8.19999997929699	83	0.000864665547851473		
9.80774197523783	-0.053802490234375	8.29999997904451	84	-5.0862679927377E-05	dWE(1).Potential/dt < 1E-06 V/s	
9.90774197498536	-0.053741455078125	8.39999997879204	85	0.000966390885878354		
10.0077419747329	-0.0537109375	8.49999997853956	86	-5.0862679927377E-05	dWE(1).Potential/dt < 1E-06 V/s	
10.1077419744804	-0.053680419921875	8.59999997828709	87	0.000406901439419016		
10.2077419742279	-0.053619384765625	8.69999997803461	88	0.000864665547851473		
10.3077419739755	-0.0535888671875	8.79999997778214	89	-5.0862679927377E-05	dWE(1).Potential/dt < 1E-06 V/s	
10.407741973723	-0.05352783203125	8.89999997752966	90	0.000966390885878354		
10.5077419734705	-0.053497314453125	8.99999997727718	91	-5.0862679927377E-05	dWE(1).Potential/dt < 1E-06 V/s	
10.607741973218	-0.053436279296875	9.09999997702471	92	0.000966390885878354		
10.7077419729656	-0.05340576171875	9.19999997677223	93	-5.0862679927377E-05	dWE(1).Potential/dt < 1E-06 V/s	
10.8077419727131	-0.0533447265625	9.29999997651976	94	0.000966390885878354		
10.9077419724606	-0.053314208984375	9.39999997626728	95	-5.0862679927377E-05	dWE(1).Potential/dt < 1E-06 V/s	
11.0077419722081	-0.05328369140625	9.49999997601481	96	0.000406901439419016		
11.1077419719556	-0.05322265625	9.59999997576233	97	0.000864665547851473		
11.2077419717032	-0.053192138671875	9.69999997550985	98	-5.0862679927377E-05	dWE(1).Potential/dt < 1E-06 V/s	
11.3077419714507	-0.053131103515625	9.79999997525738	99	0.000966390885878354		
11.4077419711982	-0.0531005859375	9.8999999750049	100	-5.0862679927377E-05	dWE(1).Potential/dt < 1E-06 V/s	
11.5077419709457	-0.05303955078125	9.99999997475243	101	0.000966390885878354		
11.6077419706933	-0.053009033203125	10.0999999745	102	-5.0862679927377E-05	dWE(1).Potential/dt < 1E-06 V/s	
11.7077419704408	-0.052978515625	10.1999999742475	103	0.000406901439419016		
11.8077419701883	-0.05291748046875	10.299999973995	104	0.000864665547851473		
11.9077419699358	-0.052886962890625	10.3999999737425	105	-5.0862679927377E-05	dWE(1).Potential/dt < 1E-06 V/s	
12.0077419696834	-0.052825927734375	10.49999997349	106	0.000966390885878354		
12.1077419694309	-0.05279541015625	10.5999999732376	107	-5.0862679927377E-05	dWE(1).Potential/dt < 1E-06 V/s	
12.2077419691784	-0.052764892578125	10.6999999729851	108	0.000406901439419016		
12.3077419689259	-0.052703857421875	10.7999999727326	109	0.000864665547851473		
12.4077419686735	-0.05267333984375	10.8999999724801	110	-5.0862679927377E-05	dWE(1).Potential/dt < 1E-06 V/s	
12.507741968421	-0.0526123046875	10.9999999722277	111	0.000966390885878354		
12.6077419681685	-0.052581787109375	11.0999999719752	112	-5.0862679927377E-05	dWE(1).Potential/dt < 1E-06 V/s	
12.707741967916	-0.05255126953125	11.1999999717227	113	0.000406901439419016		
12.8077419676636	-0.052520751953125	11.2999999714702	114	0.000305176072288305		
12.9077419674111	-0.052459716796875	11.3999999712178	115	0.000864665547851473		
13.0077419671586	-0.05242919921875	11.4999999709653	116	-5.0862679927377E-05	dWE(1).Potential/dt < 1E-06 V/s	
13.1077419669061	-0.052398681640625	11.5999999707128	117	0.000406901439419016		
13.2077419666537	-0.0523681640625	11.6999999704603	118	0.000305176072288305		
13.3077419664012	-0.052337646484375	11.7999999702079	119	0.000305176072288305		
13.4077419661487	-0.05230712890625	11.8999999699554	120	0.000305176072288305		
13.5077419658962	-0.05224609375	11.9999999697029	121	0.000864665547851473		
13.6077419656438	-0.052215576171875	12.0999999694504	122	-5.0862679927377E-05	dWE(1).Potential/dt < 1E-06 V/s	
13.7077419653913	-0.05218505859375	12.199999969198	123	0.000406901439419016		
13.8077419651388	-0.052154541015625	12.2999999689455	124	0.000305176072288305		
13.9077419648863	-0.0521240234375	12.399999968693	125	0.000305176072288305		
14.0077419646339	-0.052093505859375	12.4999999684405	126	0.000305176072288305		
14.1077419643814	-0.05206298828125	12.5999999681881	127	0.000305176072288305		
14.2077419641289	-0.052032470703125	12.6999999679356	128	0.000305176072288305		
14.3077419638764	-0.052001953125	12.7999999676831	129	0.000305176072288305		
14.4077419636239	-0.051971435546875	12.8999999674306	130	0.000305176072288305		
14.5077419633715	-0.05194091796875	12.9999999671782	131	0.000305176072288305		
14.607741963119	-0.0518798828125	13.0999999669257	132	0.000864665547851473		
14.7077419628665	-0.0518798828125	13.1999999666732	133	-0.000610352144576609	dWE(1).Potential/dt < 1E-06 V/s	
14.807741962614	-0.05181884765625	13.2999999664207	134	0.0013224296271801		
14.9077419623616	-0.051788330078125	13.3999999661683	135	-0.000152588036144152	dWE(1).Potential/dt < 1E-06 V/s	
15.0077419621091	-0.0517578125	13.4999999659158	136	0.000406901439419016		
15.1077419618566	-0.051727294921875	13.5999999656633	137	0.000305176072288305		
15.2077419616041	-0.05169677734375	13.6999999654108	138	0.000305176072288305		
15.3077419613517	-0.0516357421875	13.7999999651583	139	0.000864665547851473		
15.4077419610992	-0.051605224609375	13.8999999649059	140	-5.0862679927377E-05	dWE(1).Potential/dt < 1E-06 V/s	
15.5077419608467	-0.05157470703125	13.9999999646534	141	0.000406901439419016		
15.6077419605942	-0.051544189453125	14.0999999644009	142	0.000305176072288305		
15.7077419603418	-0.051513671875	14.1999999641484	143	0.000305176072288305		
15.8077419600893	-0.051483154296875	14.299999963896	144	0.000305176072288305		
15.9077419598368	-0.05145263671875	14.3999999636435	145	0.000305176072288305		
16.0077419595843	-0.051422119140625	14.499999963391	146	0.000305176072288305		
16.1077419593319	-0.0513916015625	14.5999999631385	147	0.000305176072288305		
16.2077419590794	-0.05133056640625	14.6999999628861	148	0.000864665547851473		
16.3077419588269	-0.051300048828125	14.7999999626336	149	-5.0862679927377E-05	dWE(1).Potential/dt < 1E-06 V/s	
16.4077419585744	-0.05126953125	14.8999999623811	150	0.000406901439419016		
16.507741958322	-0.051239013671875	14.9999999621286	151	0.000305176072288305		
16.6077419580695	-0.05120849609375	15.0999999618762	152	0.000305176072288305		
16.707741957817	-0.051177978515625	15.1999999616237	153	0.000305176072288305		
16.8077419575645	-0.0511474609375	15.2999999613712	154	0.000305176072288305		
16.9077419573121	-0.051116943359375	15.3999999611187	155	0.000305176072288305		
17.0077419570596	-0.05108642578125	15.4999999608663	156	0.000305176072288305		
17.1077419568071	-0.051055908203125	15.5999999606138	157	0.000305176072288305		
17.2077419565546	-0.051025390625	15.6999999603613	158	0.000305176072288305		
17.3077419563022	-0.050994873046875	15.7999999601088	159	0.000305176072288305		
17.4077419560497	-0.05096435546875	15.8999999598564	160	0.000305176072288305		
17.5077419557972	-0.050933837890625	15.9999999596039	161	0.000305176072288305		
17.6077419555447	-0.0509033203125	16.0999999593514	162	0.000305176072288305		
17.7077419552922	-0.050872802734375	16.1999999590989	163	0.000305176072288305		
17.8077419550398	-0.050811767578125	16.2999999588465	164	0.000864665547851473		
17.9077419547873	-0.050811767578125	16.399999958594	165	-0.000610352144576609	dWE(1).Potential/dt < 1E-06 V/s	
18.0077419545348	-0.05078125	16.4999999583415	166	0.000762940209824592		
18.1077419542823	-0.050750732421875	16.599999958089	167	0.000203450719709508		
18.2077419540299	-0.05072021484375	16.6999999578366	168	0.000305176072288305		
18.3077419537774	-0.050689697265625	16.7999999575841	169	0.000305176072288305		
18.4077419535249	-0.0506591796875	16.8999999573316	170	0.000305176072288305		
18.5077419532724	-0.05059814453125	16.9999999570791	171	0.000864665547851473		
18.60774195302	-0.050567626953125	17.0999999568267	172	-5.0862679927377E-05	dWE(1).Potential/dt < 1E-06 V/s	
18.7077419527675	-0.050537109375	17.1999999565742	173	0.000406901439419016		
18.807741952515	-0.050506591796875	17.2999999563217	174	0.000305176072288305		
18.9077419522625	-0.05047607421875	17.3999999560692	175	0.000305176072288305		
19.0077419520101	-0.050445556640625	17.4999999558167	176	0.000305176072288305		
19.1077419517576	-0.0504150390625	17.5999999555643	177	0.000305176072288305		
19.2077419515051	-0.050384521484375	17.6999999553118	178	0.000305176072288305		
19.3077419512526	-0.050384521484375	17.7999999550593	179	-0.000254313403274864	dWE(1).Potential/dt < 1E-06 V/s	
19.4077419510002	-0.050384521484375	17.8999999548068	180	0.000101725359854754		
19.5077419507477	-0.05029296875	17.9999999545544	181	0.00167846842668951		
19.6077419504952	-0.050201416015625	18.0999999543019	182	0.000610352144576609		
19.7077419502427	-0.0501708984375	18.1999999540494	183	-0.000203450719709508	dWE(1).Potential/dt < 1E-06 V/s	
19.8077419499903	-0.05010986328125	18.2999999537969	184	0.0010681162821129		
19.9077419497378	-0.050048828125	18.3999999535445	185	0.000508626806549728		
20.0077419494853	-0.050048828125	18.499999953292	186	-0.000508626806549728	dWE(1).Potential/dt < 1E-06 V/s	
20.1077419492328	-0.050018310546875	18.5999999530395	187	0.000762940209824592		
20.2077419489804	-0.04998779296875	18.699999952787	188	0.000203450719709508		
20.3077419487279	-0.049957275390625	18.7999999525346	189	0.000305176072288305		
20.4077419484754	-0.049957275390625	18.8999999522821	190	-0.000254313403274864	dWE(1).Potential/dt < 1E-06 V/s	
20.5077419482229	-0.0499267578125	18.9999999520296	191	0.00066121481359005		
20.6077419479705	-0.0499267578125	19.0999999517771	192	-0.000356038741301745	dWE(1).Potential/dt < 1E-06 V/s	
20.707741947718	-0.0499267578125	19.1999999515247	193	0.000101725359854754		
20.8077419474655	-0.049896240234375	19.2999999512722	194	0.000559489475563169		
20.907741947213	-0.049896240234375	19.3999999510197	195	-0.000356038741301745	dWE(1).Potential/dt < 1E-06 V/s	
21.0077419469606	-0.04986572265625	19.4999999507672	196	0.00066121481359005		
21.1077419467081	-0.04986572265625	19.5999999505148	197	-0.000356038741301745	dWE(1).Potential/dt < 1E-06 V/s	
21.2077419464556	-0.049835205078125	19.6999999502623	198	0.00066121481359005		
21.3077419462031	-0.049835205078125	19.7999999500098	199	-0.000356038741301745	dWE(1).Potential/dt < 1E-06 V/s	
21.4077419459506	-0.0498046875	19.8999999497573	200	0.00066121481359005		
21.5077419456982	-0.0498046875	19.9999999495049	201	-0.000356038741301745	dWE(1).Potential/dt < 1E-06 V/s	
21.6077419454457	-0.04974365234375	20.0999999492524	202	0.00122070428915322		
21.7077419451932	-0.04974365234375	20.1999999489999	203	-0.00071207748260349	dWE(1).Potential/dt < 1E-06 V/s	
21.8077419449407	-0.049713134765625	20.2999999487474	204	0.000762940209824592		
21.9077419446883	-0.0496826171875	20.399999948495	205	0.000203450719709508		
22.0077419444358	-0.049652099609375	20.4999999482425	206	0.000305176072288305		
22.1077419441833	-0.049652099609375	20.59999994799	207	-0.000254313403274864	dWE(1).Potential/dt < 1E-06 V/s	
22.2077419439308	-0.04962158203125	20.6999999477375	208	0.00066121481359005		
22.3077419436784	-0.049591064453125	20.799999947485	209	0.000203450719709508		
22.4077419434259	-0.049560546875	20.8999999472326	210	0.000305176072288305		
22.5077419431734	-0.049560546875	20.9999999469801	211	-0.000254313403274864	dWE(1).Potential/dt < 1E-06 V/s	
22.6077419429209	-0.04949951171875	21.0999999467276	212	0.00122070428915322		
22.7077419426685	-0.049468994140625	21.1999999464751	213	-0.000152588036144152	dWE(1).Potential/dt < 1E-06 V/s	
22.807741942416	-0.0494384765625	21.2999999462227	214	0.000406901439419016		
22.9077419421635	-0.0494384765625	21.3999999459702	215	-0.000254313403274864	dWE(1).Potential/dt < 1E-06 V/s	
23.007741941911	-0.049407958984375	21.4999999457177	216	0.00066121481359005		
23.1077419416586	-0.04937744140625	21.5999999454652	217	0.000203450719709508		
23.2077419414061	-0.049346923828125	21.6999999452128	218	0.000305176072288305		
23.3077419411536	-0.049346923828125	21.7999999449603	219	-0.000254313403274864	dWE(1).Potential/dt < 1E-06 V/s	
23.4077419409011	-0.049346923828125	21.8999999447078	220	0.000101725359854754		
23.5077419406487	-0.04931640625	21.9999999444553	221	0.000559489475563169		
23.6077419403962	-0.049285888671875	22.0999999442029	222	0.000203450719709508		
23.7077419401437	-0.049285888671875	22.1999999439504	223	-0.000254313403274864	dWE(1).Potential/dt < 1E-06 V/s	
23.8077419398912	-0.04925537109375	22.2999999436979	224	0.00066121481359005		
23.9077419396388	-0.04925537109375	22.3999999434454	225	-0.000356038741301745	dWE(1).Potential/dt < 1E-06 V/s	
24.0077419393863	-0.049224853515625	22.499999943193	226	0.00066121481359005		
24.1077419391338	-0.049224853515625	22.5999999429405	227	-0.000356038741301745	dWE(1).Potential/dt < 1E-06 V/s	
24.2077419388813	-0.0491943359375	22.699999942688	228	0.00066121481359005		
24.3077419386289	-0.049163818359375	22.7999999424355	229	0.000203450719709508		
