Time (s)	WE(1).Potential (V)	Corrected time (s)	Index	dWE(1).Potential/dt (V/s)	Cutoffs	OCP value (V)
1.41273999643317	0.0082672119140625	0	1	0	dWE(1).Potential/dt < 1E-06 V/s	0.0112354951746324
1.5127399961807	0.00826110839843749	0.0999999997475243	2	-6.10295537626371E-05	dWE(1).Potential/dt < 1E-06 V/s	
1.61273999592822	0.0084197998046875	0.199999999495049	3	0.00241087237372994		
1.71273999567575	0.00867309570312499	0.299999999242573	4	0.00277204066514969		
1.81273999542327	0.0084381103515625	0.399999998990097	5	-0.00673422450199723	dWE(1).Potential/dt < 1E-06 V/s	
1.9127399951708	0.00844421386718749	0.499999998737621	6	0.00369772547855973		
2.01273999491832	0.00844421386718749	0.599999998485146	7	-0.000854488287586719	dWE(1).Potential/dt < 1E-06 V/s	
2.11273999466584	0.00841064453125	0.69999999823267	8	-0.000595090154092759	dWE(1).Potential/dt < 1E-06 V/s	
2.21273999441337	0.0085906982421875	0.799999997980194	9	0.00369261251762509		
2.31273999416089	0.008984375	0.899999997727718	10	0.0050048828125		
2.41273999390842	0.00867919921875	0.999999997475243	11	-0.00958759430795908	dWE(1).Potential/dt < 1E-06 V/s	
2.51273999365594	0.00864257812499999	1.09999999722277	12	0.00420126970857382		
2.61273999340347	0.00862731933593749	1.19999999697029	13	-0.000869752606377006	dWE(1).Potential/dt < 1E-06 V/s	
2.71273999315099	0.008624267578125	1.29999999671782	14	3.10440784190291E-09	dWE(1).Potential/dt < 1E-06 V/s	
2.81273999289851	0.00861511230468751	1.39999999646534	15	-0.000183129013748839	dWE(1).Potential/dt < 1E-06 V/s	
2.91273999264604	0.0086181640625	1.49999999621286	16	0.000152594060637057		
3.01273999239356	0.008587646484375	1.59999999596039	17	-0.00062560336664319	dWE(1).Potential/dt < 1E-06 V/s	
3.11273999214109	0.00856933593750001	1.69999999570791	18	3.05163284792798E-05		
3.21273999188861	0.0085418701171875	1.79999999545544	19	-0.000391648994991556	dWE(1).Potential/dt < 1E-06 V/s	
3.31273999163614	0.008514404296875	1.89999999520296	20	-0.000244127528276294	dWE(1).Potential/dt < 1E-06 V/s	
3.41273999138366	0.00852050781249999	1.99999999495049	21	0.000340783270075917		
3.51273999113118	0.00850830078125001	2.09999999469801	22	-0.000386570172850043	dWE(1).Potential/dt < 1E-06 V/s	
3.61273999087871	0.00850830078125001	2.19999999444553	23	0.000162757889484055		
3.71273999062623	0.00848999023437499	2.29999999419306	24	-0.000376372190658003	dWE(1).Potential/dt < 1E-06 V/s	
3.81273999037376	0.008544921875	2.39999999394058	25	0.00122069660574198		
3.91273999012128	0.00860595703125	2.49999999368811	26	0.000417077186284587		
4.01273998986881	0.00872192382812501	2.59999999343563	27	0.0015970750246197		
4.11273998961633	0.008819580078125	2.69999999318316	28	0.000640873971860856		
4.21273998936385	0.0088165283203125	2.79999999293068	29	-0.000808723096270114	dWE(1).Potential/dt < 1E-06 V/s	
4.31273998911138	0.00877990722656249	2.8999999926782	30	-0.00031023588962853	dWE(1).Potential/dt < 1E-06 V/s	
4.4127399888589	0.008709716796875	2.99999999242573	31	-0.000869768147822469	dWE(1).Potential/dt < 1E-06 V/s	
4.51273998860643	0.008685302734375	3.09999999217325	32	0.00024924980243668		
4.61273998835395	0.00859375	3.19999999192078	33	-0.00162762240506709	dWE(1).Potential/dt < 1E-06 V/s	
4.71273998810148	0.00855407714843751	3.2999999916683	34	0.000259382592048496		
4.812739987849	0.0084686279296875	3.39999999141583	35	-0.00140888267196715	dWE(1).Potential/dt < 1E-06 V/s	
4.91273998759652	0.008563232421875	3.49999999116335	36	0.00259908172301948		
5.01273998734405	0.00839843749999999	3.59999999091087	37	-0.00440979283303022	dWE(1).Potential/dt < 1E-06 V/s	
5.11273998709157	0.008258056640625	3.6999999906584	38	-0.000335685821482912	dWE(1).Potential/dt < 1E-06 V/s	
5.2127399868391	0.0082550048828125	3.79999999040592	39	0.00103249808307737		
5.31273998658662	0.00819091796875	3.89999999015345	40	-0.00160725752357394	dWE(1).Potential/dt < 1E-06 V/s	
5.41273998633415	0.00809631347656251	3.99999998990097	41	-0.000996902934275568	dWE(1).Potential/dt < 1E-06 V/s	
5.51273998608167	0.008135986328125	4.0999999896485	42	0.00161743373610079		
5.61273998582919	0.00810546875	4.19999998939602	43	-0.00133769866079092	dWE(1).Potential/dt < 1E-06 V/s	
5.71273998557672	0.00809631347656251	4.29999998914354	44	0.000320418359478936		
5.81273998532424	0.00806274414062499	4.39999998889107	45	-0.000610329676419497	dWE(1).Potential/dt < 1E-06 V/s	
5.91273998507177	0.007952880859375	4.49999998863859	46	-0.00165303819812834	dWE(1).Potential/dt < 1E-06 V/s	
6.01273998481929	0.0077850341796875	4.59999998838612	47	-0.00190735433716327	dWE(1).Potential/dt < 1E-06 V/s	
6.11273998456682	0.00786437988281249	4.69999998813364	48	0.00304667209275067		
6.21273998431434	0.00784912109374999	4.79999998788116	49	-0.00176492100581527	dWE(1).Potential/dt < 1E-06 V/s	
6.31273998406186	0.00783386230468749	4.89999998762869	50	0.000162767202709801		
6.41273998380939	0.00782165527343751	4.99999998737621	51	-9.66526349657215E-05	dWE(1).Potential/dt < 1E-06 V/s	
6.51273998355691	0.00779113769531251	5.09999998712374	52	-0.000467927398858592	dWE(1).Potential/dt < 1E-06 V/s	
6.61273998330444	0.00775146484375	5.19999998687126	53	-0.000411985965911299	dWE(1).Potential/dt < 1E-06 V/s	
6.71273998305196	0.00775756835937499	5.29999998661879	54	0.00047301861923188		
6.81273998279949	0.007794189453125	5.39999998636631	55	0.000467925856355578		
6.91273998254701	0.0079071044921875	5.49999998611383	56	0.00166323001030833		
7.01273998229453	0.00765075683593749	5.59999998586136	57	-0.00589500181376934	dWE(1).Potential/dt < 1E-06 V/s	
7.11273998204206	0.00758972167968749	5.69999998560888	58	0.00224812841042876		
7.21273998178958	0.00672607421875	5.79999998535641	59	-0.0159759558737278	dWE(1).Potential/dt < 1E-06 V/s	
7.31273998153711	0.00740966796875001	5.89999998510393	60	0.0224049910902977		
7.41273998128463	0.00745849609375	5.99999998485146	61	-0.00995890144258738	dWE(1).Potential/dt < 1E-06 V/s	
7.51273998103215	0.007489013671875	6.09999998459898	62	0.00226848083548248		
7.61273998077968	0.0075531005859375	6.1999999843465	63	0.000981655670329928		
7.7127399805272	0.00758056640625	6.29999998409403	64	-0.000142427132232115	dWE(1).Potential/dt < 1E-06 V/s	
7.81273998027473	0.0074951171875	6.39999998384155	65	-0.00167335965670645	dWE(1).Potential/dt < 1E-06 V/s	
7.91273998002225	0.0074737548828125	6.49999998358908	66	0.000696790521033108		
8.01273997976978	0.00745239257812499	6.5999999833366	67	-0.000427225517341867	dWE(1).Potential/dt < 1E-06 V/s	
8.1127399795173	0.0073883056640625	6.69999998308413	68	-0.000996915390715003	dWE(1).Potential/dt < 1E-06 V/s	
8.21273997926482	0.007342529296875	6.79999998283165	69	-0.000162767202709801	dWE(1).Potential/dt < 1E-06 V/s	
8.31273997901235	0.00726928710937499	6.89999998257917	70	-0.00102234829682857	dWE(1).Potential/dt < 1E-06 V/s	
8.41273997875987	0.00722351074218749	6.9999999823267	71	-0.000137329683639109	dWE(1).Potential/dt < 1E-06 V/s	
8.5127399785074	0.0071685791015625	7.09999998207422	72	-0.000717171002179384	dWE(1).Potential/dt < 1E-06 V/s	
8.61273997825492	0.0070831298828125	7.19999998182175	73	-0.00107826478779316	dWE(1).Potential/dt < 1E-06 V/s	
8.71273997800245	0.00704040527343749	7.29999998156927	74	3.04930454149144E-05		
8.81273997774997	0.00699768066406251	7.3999999813168	75	-0.00056965573458001	dWE(1).Potential/dt < 1E-06 V/s	
8.91273997749749	0.006976318359375	7.49999998106432	76	-3.55920346919447E-05	dWE(1).Potential/dt < 1E-06 V/s	
9.01273997724502	0.0069915771484375	7.59999998081184	77	0.000386543804779649		
9.11273997699254	0.00699768066406251	7.69999998055937	78	-0.000137334340251982	dWE(1).Potential/dt < 1E-06 V/s	
9.21273997674007	0.0069732666015625	7.79999998030689	79	-0.000467924284748733	dWE(1).Potential/dt < 1E-06 V/s	
9.31273997648759	0.0069610595703125	7.89999998005442	80	8.13820515759289E-05		
9.41273997623512	0.00696411132812499	7.99999997980194	81	0.000116966330097057		
9.51273997598264	0.00696411132812499	8.09999997954947	82	-7.62939307605848E-05	dWE(1).Potential/dt < 1E-06 V/s	
9.61273997573016	0.00694885253906249	8.19999997929699	83	-0.000269577460130677	dWE(1).Potential/dt < 1E-06 V/s	
9.71273997547769	0.00693359374999999	8.29999997904451	84	-0.000101729892776348	dWE(1).Potential/dt < 1E-06 V/s	
9.81273997522521	0.00688781738281249	8.39999997879204	85	-0.000712068867869675	dWE(1).Potential/dt < 1E-06 V/s	
9.91273997497274	0.0068511962890625	8.49999997853956	86	-0.000188187652383931	dWE(1).Potential/dt < 1E-06 V/s	
10.0127399747203	0.00682678222656249	8.59999997828709	87	-0.000172938802279532	dWE(1).Potential/dt < 1E-06 V/s	
10.1127399744678	0.0068206787109375	8.69999997803461	88	5.08703778905328E-05		
10.2127399742153	0.00681457519531251	8.79999997778214	89	-0.000122071520308964	dWE(1).Potential/dt < 1E-06 V/s	
10.3127399739628	0.0067901611328125	8.89999997752966	90	-0.000396735558751971	dWE(1).Potential/dt < 1E-06 V/s	
10.4127399737104	0.0067718505859375	8.99999997727718	91	-7.12089095031843E-05	dWE(1).Potential/dt < 1E-06 V/s	
10.5127399734579	0.006744384765625	9.09999997702471	92	-0.000371294940123335	dWE(1).Potential/dt < 1E-06 V/s	
10.6127399732054	0.0067413330078125	9.19999997677223	93	0.000203444258659147		
10.7127399729529	0.0067169189453125	9.29999997651976	94	-0.000503531831782311	dWE(1).Potential/dt < 1E-06 V/s	
10.8127399727005	0.0067138671875	9.39999997626728	95	0.000218705536099151		
10.912739972448	0.00670776367187501	9.49999997601481	96	-0.000157669768668711	dWE(1).Potential/dt < 1E-06 V/s	
11.0127399721955	0.006695556640625	9.59999997576233	97	-0.000162773416377604	dWE(1).Potential/dt < 1E-06 V/s	
11.112739971943	0.0066680908203125	9.69999997550985	98	-0.000381463440135121	dWE(1).Potential/dt < 1E-06 V/s	
11.2127399716906	0.00665893554687499	9.79999997525738	99	0.000111893721623346		
11.3127399714381	0.0066558837890625	9.8999999750049	100	-4.06770559493452E-05	dWE(1).Potential/dt < 1E-06 V/s	
11.4127399711856	0.00666198730468751	9.99999997475243	101	0.000116980299935676		
11.5127399709331	0.00666198730468751	10.0999999745	102	-8.13836013549007E-05	dWE(1).Potential/dt < 1E-06 V/s	
11.6127399706807	0.0066497802734375	10.1999999742475	103	-0.000203459785552695	dWE(1).Potential/dt < 1E-06 V/s	
11.7127399704282	0.00662841796874999	10.299999973995	104	-0.000249223405262455	dWE(1).Potential/dt < 1E-06 V/s	
11.8127399701757	0.00663146972656251	10.3999999737425	105	0.00026449398137629		
11.9127399699232	0.006610107421875	10.49999997349	106	-0.000498459266964346	dWE(1).Potential/dt < 1E-06 V/s	
12.0127399696707	0.006610107421875	10.5999999732376	107	0.000259405875112861		
12.1127399694183	0.0066253662109375	10.6999999729851	108	0.000208540150197223		
12.2127399691658	0.00657043457031251	10.7999999727326	109	-0.00118509843014181	dWE(1).Potential/dt < 1E-06 V/s	
12.3127399689133	0.00653686523437499	10.8999999724801	110	7.62846175348386E-05		
12.4127399686608	0.00655212402343749	10.9999999722277	111	0.000488289224449545		
12.5127399684084	0.006561279296875	11.0999999719752	112	-0.000122066870972048	dWE(1).Potential/dt < 1E-06 V/s	
12.6127399681559	0.0065582275390625	11.1999999717227	113	-0.000111906141682994	dWE(1).Potential/dt < 1E-06 V/s	
12.7127399679034	0.00655517578125001	11.2999999714702	114	1.01778014141019E-05		
12.8127399676509	0.00653076171875	11.3999999712178	115	-0.000422168435761705	dWE(1).Potential/dt < 1E-06 V/s	
12.9127399673985	0.00653076171875	11.4999999709653	116	0.000274662481388077		
13.012739967146	0.0065277099609375	11.5999999707128	117	-0.000137334340251982	dWE(1).Potential/dt < 1E-06 V/s	
13.1127399668935	0.00652160644531249	11.6999999704603	118	-7.62939307605848E-05	dWE(1).Potential/dt < 1E-06 V/s	
13.212739966641	0.0065032958984375	11.7999999702079	119	-0.000274646969046444	dWE(1).Potential/dt < 1E-06 V/s	
13.3127399663886	0.006500244140625	11.8999999699554	120	0.000137323484523222		
13.4127399661361	0.00652465820312501	11.9999999697029	121	0.000422163779148832		
13.5127399658836	0.00652160644531249	12.0999999694504	122	-0.000350962625816464	dWE(1).Potential/dt < 1E-06 V/s	
13.6127399656311	0.0065185546875	12.199999969198	123	6.10512870480306E-05		
13.7127399653787	0.00653686523437499	12.2999999689455	124	0.000361115584382787		
13.8127399651262	0.00652160644531249	12.399999968693	125	-0.000503533403389156	dWE(1).Potential/dt < 1E-06 V/s	
13.9127399648737	0.0065185546875	12.4999999684405	126	0.000183113501407206		
14.0127399646212	0.006488037109375	12.5999999681881	127	-0.000574748497456312	dWE(1).Potential/dt < 1E-06 V/s	
14.1127399643688	0.00646057128906249	12.6999999679356	128	-0.000157677524839528	dWE(1).Potential/dt < 1E-06 V/s	
14.2127399641163	0.006439208984375	12.7999999676831	129	-0.000172924832440913	dWE(1).Potential/dt < 1E-06 V/s	
14.3127399638638	0.00646362304687501	12.8999999674306	130	0.000605263281613588		
14.4127399636113	0.00649414062500001	12.9999999671782	131	0.000203445815714076		
14.5127399633589	0.00645751953125	13.0999999669257	132	-0.000946043466683477	dWE(1).Potential/dt < 1E-06 V/s	
14.6127399631064	0.00645751953125	13.1999999666732	133	0.000528977136127651		
14.7127399628539	0.00645751953125	13.2999999664207	134	-0.000122066870972048	dWE(1).Potential/dt < 1E-06 V/s	
14.8127399626014	0.0064361572265625	13.3999999661683	135	-0.000391648994991556	dWE(1).Potential/dt < 1E-06 V/s	
14.912739962349	0.00644531249999999	13.4999999659158	136	0.000417074101278558		
15.0127399620965	0.00646362304687501	13.5999999656633	137	0.000157682181452401		
15.112739961844	0.0064697265625	13.6999999654108	138	-7.12182227289304E-05	dWE(1).Potential/dt < 1E-06 V/s	
15.2127399615915	0.0064727783203125	13.7999999651583	139	4.57853602711111E-05		
15.312739961339	0.0064849853515625	13.8999999649059	140	0.00020853393652942		
15.4127399610866	0.00648193359375	13.9999999646534	141	-0.000188195408554748	dWE(1).Potential/dt < 1E-06 V/s	
15.5127399608341	0.00649414062500001	14.0999999644009	142	0.000300093786790967		
15.6127399605816	0.00649414062500001	14.1999999641484	143	-0.000152594060637057	dWE(1).Potential/dt < 1E-06 V/s	
15.7127399603291	0.00646362304687501	14.299999963896	144	-0.000518799351993948	dWE(1).Potential/dt < 1E-06 V/s	
15.8127399600767	0.0064849853515625	14.3999999636435	145	0.000747676473110914		
15.9127399598242	0.00649108886718749	14.499999963391	146	-0.00023905337729957	dWE(1).Potential/dt < 1E-06 V/s	
16.0127399595717	0.006512451171875	14.5999999631385	147	0.000391644338378683		
16.1127399593192	0.0065032958984375	14.6999999628861	148	-0.00039672470302321	dWE(1).Potential/dt < 1E-06 V/s	
16.2127399590668	0.0064971923828125	14.7999999626336	149	6.61130252410658E-05		
16.3127399588143	0.00650634765624999	14.8999999623811	150	0.000208538593142293		
16.4127399585618	0.0065155029296875	14.9999999621286	151	4.06956824008375E-05		
16.5127399583093	0.006512451171875	15.0999999618762	152	-0.000132250876049511	dWE(1).Potential/dt < 1E-06 V/s	
16.6127399580569	0.0065277099609375	15.1999999616237	153	0.000345863634720445		
16.7127399578044	0.00652160644531249	15.2999999613712	154	-0.000300090701784939	dWE(1).Potential/dt < 1E-06 V/s	
16.8127399575519	0.00653076171875	15.3999999611187	155	0.000289923744276166		
16.9127399572994	0.00653991699218751	15.4999999608663	156	4.06894723710138E-05		
17.012739957047	0.00653076171875	15.5999999606138	157	-0.000244147697230801	dWE(1).Potential/dt < 1E-06 V/s	
17.1127399567945	0.006512451171875	15.6999999603613	158	-0.000198365451069549	dWE(1).Potential/dt < 1E-06 V/s	
17.212739956542	0.006549072265625	15.7999999601088	159	0.000854499114211649		
17.3127399562895	0.0065582275390625	15.8999999598564	160	-0.000320443185046315	dWE(1).Potential/dt < 1E-06 V/s	
17.4127399560371	0.0065277099609375	15.9999999596039	161	-0.000544230628293008	dWE(1).Potential/dt < 1E-06 V/s	
17.5127399557846	0.006549072265625	16.0999999593514	162	0.000778203655499965		
17.6127399555321	0.006549072265625	16.1999999590989	163	-0.000350950198480859	dWE(1).Potential/dt < 1E-06 V/s	
17.7127399552796	0.00654296875	16.2999999588465	164	-4.06956824008375E-05	dWE(1).Potential/dt < 1E-06 V/s	
17.8127399550272	0.0065460205078125	16.399999958594	165	0.000127159655676223		
17.9127399547747	0.0065460205078125	16.4999999583415	166	-5.59507425350603E-05	dWE(1).Potential/dt < 1E-06 V/s	
18.0127399545222	0.0065460205078125	16.599999958089	167	1.01731448012288E-05		
18.1127399542697	0.0065582275390625	16.6999999578366	168	0.000223790557356551		
18.2127399540173	0.0065887451171875	16.7999999575841	169	0.0004170709871687		
18.3127399537648	0.0065948486328125	16.8999999573316	170	-0.000203444258659147	dWE(1).Potential/dt < 1E-06 V/s	
18.4127399535123	0.00660400390625	16.9999999570791	171	0.000198356137843803		
18.5127399532598	0.00662841796874999	17.0999999568267	172	0.000361126440111548		
18.6127399530073	0.0066497802734375	17.1999999565742	173	0.000137329683639109		
18.7127399527549	0.0066070556640625	17.2999999563217	174	-0.000951131572946906	dWE(1).Potential/dt < 1E-06 V/s	
18.8127399525024	0.0066070556640625	17.3999999560692	175	0.000569660391192883		
18.9127399522499	0.00663146972656251	17.4999999558167	176	0.000305178808048368		
19.0127399519974	0.00657043457031251	17.5999999555643	177	-0.00140381325036287	dWE(1).Potential/dt < 1E-06 V/s	
19.112739951745	0.00658264160156249	17.6999999553118	178	0.00101724616251886		
19.2127399514925	0.00664672851562501	17.7999999550593	179	0.000829074007924646		
19.31273995124	0.00665283203125	17.8999999548068	180	-0.000595104123931378	dWE(1).Potential/dt < 1E-06 V/s	
19.4127399509875	0.00664367675781249	17.9999999545544	181	-2.54297574429074E-05	dWE(1).Potential/dt < 1E-06 V/s	
19.5127399507351	0.00664672851562501	18.0999999543019	182	0.00018311504391022		
19.6127399504826	0.00665283203125	18.1999999540494	183	4.57651804026682E-05		
19.7127399502301	0.0066680908203125	18.2999999537969	184	0.000218713292269967		
19.8127399499776	0.0066802978515625	18.3999999535445	185	6.61161247990094E-05		
19.9127399497252	0.00669250488281251	18.499999953292	186	0.000132247776491567		
20.0127399494727	0.00670471191406249	18.5999999530395	187	0.000122059107525274		
20.1127399492202	0.0067169189453125	18.699999952787	188	0.000122087047202513		
20.2127399489677	0.00673828125000001	18.7999999525346	189	0.000289912888547406		
20.3127399487153	0.0067291259765625	18.8999999522821	190	-0.000376389274606481	dWE(1).Potential/dt < 1E-06 V/s	
20.4127399484628	0.0067596435546875	18.9999999520296	191	0.000737511087208986		
20.5127399482103	0.0067779541015625	19.0999999517771	192	-5.08579614688642E-05	dWE(1).Potential/dt < 1E-06 V/s	
20.6127399479578	0.0067901611328125	19.1999999515247	193	0.000111895278678276		
20.7127399477054	0.00679626464843749	19.2999999512722	194	3.05163284792798E-05		
20.8127399474529	0.0068206787109375	19.3999999510197	195	0.000417080300394446		
20.9127399472004	0.0068389892578125	19.4999999507672	196	7.12089095031843E-05		
21.0127399469479	0.0068359375	19.5999999505148	197	-0.000188193866051733	dWE(1).Potential/dt < 1E-06 V/s	
21.1127399466955	0.0068511962890625	19.6999999502623	198	0.000376384617993608		
21.212739946443	0.00687255859374999	19.7999999500098	199	0.000203447372769006		
21.3127399461905	0.0068695068359375	19.8999999497573	200	-0.000254300684900954	dWE(1).Potential/dt < 1E-06 V/s	
21.412739945938	0.0068634033203125	19.9999999495049	201	-5.09743767906912E-06	dWE(1).Potential/dt < 1E-06 V/s	
21.5127399456856	0.006884765625	20.0999999492524	202	0.00045268630492501		
21.6127399454331	0.00689086914062501	20.1999999489999	203	-0.000157675982336514	dWE(1).Potential/dt < 1E-06 V/s	
21.7127399451806	0.006884765625	20.2999999487474	204	-0.000111898378236219	dWE(1).Potential/dt < 1E-06 V/s	
21.8127399449281	0.00690307617187499	20.399999948495	205	0.000427244143793359		
21.9127399446756	0.006915283203125	20.4999999482425	206	-1.01591749626095E-05	dWE(1).Potential/dt < 1E-06 V/s	
22.0127399444232	0.0069305419921875	20.59999994799	207	0.000198362351511605		
22.1127399441707	0.0069244384765625	20.6999999477375	208	-0.000249232718488201	dWE(1).Potential/dt < 1E-06 V/s	
22.2127399439182	0.006939697265625	20.799999947485	209	0.000401812809286639		
22.3127399436657	0.0069549560546875	20.8999999472326	210	8.1375845184084E-05		
22.4127399434133	0.0069732666015625	20.9999999469801	211	0.000208551020477898		
22.5127399431608	0.0070037841796875	21.0999999467276	212	0.000396721588913351		
22.6127399429083	0.0070343017578125	21.1999999464751	213	0.000264486239757389		
22.7127399426558	0.007049560546875	21.2999999462227	214	2.54313090408687E-05		
22.8127399424034	0.00705871582031251	21.3999999459702	215	9.15551936486736E-05		
22.9127399421509	0.00707092285156249	21.4999999457177	216	0.000167849124409258		
23.0127399418984	0.00707092285156249	21.5999999454652	217	-0.000111907691461965	dWE(1).Potential/dt < 1E-06 V/s	
23.1127399416459	0.00708923339843751	21.6999999452128	218	0.000376383075490594		
23.2127399413935	0.0071075439453125	21.7999999449603	219	0.000122073077363893		
23.312739941141	0.0071380615234375	21.8999999447078	220	0.00040690871537663		
23.4127399408885	0.00714721679687499	21.9999999444553	221	-0.000127151884953491	dWE(1).Potential/dt < 1E-06 V/s	
23.512739940636	0.007171630859375	22.0999999442029	222	0.000442492979345843		
23.6127399403836	0.00719604492187501	22.1999999439504	223	0.000193283529370092		
23.7127399401311	0.00721130371093751	22.2999999436979	224	7.63016869314015E-05		
23.8127399398786	0.007220458984375	22.3999999434454	225	7.12151158950292E-05		
23.9127399396261	0.00722656250000001	22.499999943193	226	5.59336695005186E-05		
24.0127399393737	0.0072509765625	22.5999999429405	227	0.000406918028602377		
24.1127399391212	0.0072662353515625	22.699999942688	228	1.52457469084766E-05		
24.2127399388687	0.007275390625	22.7999999424355	229	7.1194939664565E-05		
24.3127399386162	0.00731506347656249	22.8999999421831	230	0.00067140581086278		
24.4127399383638	0.007354736328125	22.9999999419306	231	0.000294990139082074		
24.5127399381113	0.007373046875	23.0999999416781	232	5.09433311890461E-06		
24.6127399378588	0.0074005126953125	23.1999999414256	233	0.00042214515269734		
24.7127399376063	0.00743408203125	23.2999999411732	234	0.000356050732079893		
24.8127399373539	0.0074493408203125	23.3999999409207	235	-2.03556028282037E-05	dWE(1).Potential/dt < 1E-06 V/s	
24.9127399371014	0.00748596191406251	23.4999999406682	236	0.00060526019660756		
25.0127399368489	0.0075042724609375	23.5999999404157	237	-4.06832659791689E-05	dWE(1).Potential/dt < 1E-06 V/s	
25.1127399365964	0.007537841796875	23.6999999401633	238	0.000523896771483123		
25.212739936344	0.00754394531249999	23.7999999399108	239	-0.00021871950593777	dWE(1).Potential/dt < 1E-06 V/s	
25.3127399360915	0.00758056640625	23.8999999396583	240	0.000712067354470491		
25.412739935839	0.0076263427734375	23.9999999394058	241	0.000432344677392393		
25.5127399355865	0.0076324462890625	24.0999999391533	242	-0.000300076731946319	dWE(1).Potential/dt < 1E-06 V/s	
25.612739935334	0.00765075683593749	24.1999999389009	243	0.000417049246607348		
25.7127399350816	0.0076873779296875	24.2999999386484	244	0.000478106754599139		
25.8127399348291	0.0076873779296875	24.3999999383959	245	-0.000366199063137174	dWE(1).Potential/dt < 1E-06 V/s	
25.9127399345766	0.00772705078124999	24.4999999381434	246	0.00084941100794822		
26.0127399343241	0.00777282714843749	24.599999937891	247	0.000376369105651975		
26.1127399340717	0.00779113769531251	24.6999999376385	248	-6.61207814118825E-05	dWE(1).Potential/dt < 1E-06 V/s	
26.2127399338192	0.00781860351562499	24.799999937386	249	0.000442522461526096		
26.3127399335667	0.00786743164062501	24.8999999371335	250	0.00063576566753909		
26.4127399333142	0.00791015624999999	24.9999999368811	251	0.000305192777886987		
26.5127399330618	0.00794677734375	25.0999999366286	252	0.000335679622367024		
26.6127399328093	0.0079986572265625	25.1999999363761	253	0.000666323874611408		
26.7127399325568	0.00804443359375	25.2999999361236	254	0.000356019707396626		
26.8127399323043	0.0080841064453125	25.3999999358712	255	0.000366199063137174		
26.9127399320519	0.0081146240234375	25.4999999356187	256	0.000249243603320792		
27.0127399317994	0.0081512451171875	25.5999999353662	257	0.000447602826170623		
27.1127399315469	0.008197021484375	25.6999999351137	258	0.000513695704285055		
27.2127399312944	0.0082244873046875	25.7999999348613	259	9.15458804229274E-05		
27.312739931042	0.008251953125	25.8999999346088	260	0.000335695134708658		
27.4127399307895	0.008282470703125	25.9999999343563	261	0.000330616341670975		
27.512739930537	0.0083038330078125	26.0999999341038	262	0.000127168968901969		
27.6127399302845	0.00833740234374999	26.1999999338514	263	0.000467924284748733		
27.7127399300321	0.00837097167968751	26.2999999335989	264	0.000294996367301792		
27.8127399297796	0.00841674804687501	26.3999999333464	265	0.000559485692065209		
27.9127399295271	0.00844726562500001	26.4999999330939	266	0.000137320370413363		
28.0127399292746	0.00848999023437499	26.5999999328415	267	0.000579847488552332		
28.1127399290222	0.00853881835937501	26.699999932589	268	0.000498437497299165		
28.2127399287697	0.008563232421875	26.7999999323365	269	2.03587060241261E-05		
28.3127399285172	0.00860595703125	26.899999932084	270	0.000661195430438966		
28.4127399282647	0.0086700439453125	26.9999999318316	271	0.000757866655476391		
28.5127399280123	0.008709716796875	27.0999999315791	272	0.000122049794299528		
28.6127399277598	0.00875244140625001	27.1999999313266	273	0.000534069899003953		
28.7127399275073	0.0087860107421875	27.2999999310741	274	0.000249218748649582		
28.8127399272548	0.00882568359374999	27.3999999308217	275	0.000478131580166519		
28.9127399270023	0.008868408203125	27.4999999305692	276	0.000432326050940901		
29.0127399267499	0.0089141845703125	27.5999999303167	277	0.000473015505122021		
29.1127399264974	0.00897216796875	27.6999999300642	278	0.000671377871185541		
29.2127399262449	0.00900878906249999	27.7999999298117	279	0.000147518352605402		
29.3127399259924	0.00903930664062499	27.8999999295593	280	0.000325525092193857		
29.41273992574	0.00910339355468751	27.9999999293068	281	0.000940945988986641		
29.5127399254875	0.00914611816406249	28.0999999290543	282	0.000137345210532658		
29.612739925235	0.009185791015625	28.1999999288018	283	0.000442496093455702		
29.7127399249825	0.00924072265625001	28.2999999285494	284	0.00068663916317746		
29.8127399247301	0.00926513671875	28.3999999282969	285	-6.10264505667146E-05	dWE(1).Potential/dt < 1E-06 V/s	
29.9127399244776	0.00931701660156251	28.4999999280444	286	0.000849378411658108		
30.0127399242251	0.009356689453125	28.5999999277919	287	0.000203469098778442		
30.1127399239726	0.0094024658203125	28.6999999275395	288	0.000549303251318634		
30.2127399237202	0.00943908691406251	28.799999927287	289	0.000269555719569325		
30.3127399234677	0.00947265625	28.8999999270345	290	0.000340786384185776		
30.4127399232152	0.00951538085937501	28.999999926782	291	0.000513714330736548		
30.5127399229627	0.009564208984375	29.0999999265296	292	0.000508619996253401		
30.6127399227103	0.00962219238281251	29.1999999262771	293	0.000635785807389766		
30.7127399224578	0.00968017578124999	29.2999999260246	294	0.000549324962776154		
30.8127399222053	0.0097076416015625	29.3999999257721	295	2.03431845875457E-05		
30.9127399219528	0.0097503662109375	29.4999999255197	296	0.000656116579193622		
31.0127399217004	0.00977783203125	29.5999999252672	297	9.66402149060741E-05		
31.1127399214479	0.0098236083984375	29.6999999250147	298	0.000661223370116204		
31.2127399211954	0.009844970703125	29.7999999247622	299	-5.08502016600687E-05	dWE(1).Potential/dt < 1E-06 V/s	
31.3127399209429	0.0098846435546875	29.8999999245098	300	0.000630669761449099		
31.4127399206905	0.00993957519531249	29.9999999242573	301	0.000615470577031374		
31.512739920438	0.00998535156249999	30.0999999240048	302	0.00033060391433537		
31.6127399201855	0.0100189208984375	30.1999999237523	303	0.000264473812421784		
31.712739919933	0.01007080078125	30.2999999234999	304	0.000712082837708294		
31.8127399196806	0.0100860595703125	30.3999999232474	305	-0.000213626713957638	dWE(1).Potential/dt < 1E-06 V/s	
31.9127399194281	0.0101165771484375	30.4999999229949	306	0.000554403755813837		
32.0127399191756	0.010150146484375	30.5999999227424	307	0.000310266943415627		
32.1127399189231	0.01019287109375	30.69999992249	308	0.000493352476041764		
32.2127399186706	0.010223388671875	30.7999999222375	309	0.000172940344782546		
32.3127399184182	0.0102691650390625	30.899999921985	310	0.000625609594862908		
32.4127399181657	0.01029052734375	30.9999999217325	311	-4.06801591452677E-05	dWE(1).Potential/dt < 1E-06 V/s	
32.5127399179132	0.0103179931640625	31.09999992148	312	0.000406900944653898		
32.6127399176607	0.0103485107421875	31.1999999212276	313	0.000310254516080022		
32.7127399174083	0.0103790283203125	31.2999999209751	314	0.00029499945230782		
32.8127399171558	0.0103851318359375	31.3999999207226	315	-0.000142433331348002	dWE(1).Potential/dt < 1E-06 V/s	
32.9127399169033	0.0104278564453125	31.4999999204701	316	0.000813823600765318		
33.0127399166508	0.0104522705078125	31.5999999202177	317	-3.05256435240153E-05	dWE(1).Potential/dt < 1E-06 V/s	
33.1127399163984	0.0104736328125	31.6999999199652	318	0.000249240489210933		
33.2127399161459	0.01048583984375	31.7999999197127	319	5.59476393391378E-05		
33.3127399158934	0.010516357421875	31.8999999194602	320	0.000488273683004081		
33.4127399156409	0.0105377197265625	31.9999999192078	321	7.62753043090925E-05		
33.5127399153885	0.010546875	32.0999999189553	322	2.0361811039038E-05		
33.612739915136	0.010552978515625	32.1999999187028	323	7.62659910833463E-05		
33.7127399148835	0.0105926513671875	32.2999999184503	324	0.00068666395964101		
33.812739914631	0.01058349609375	32.3999999181979	325	-0.000610379327554256	dWE(1).Potential/dt < 1E-06 V/s	
33.9127399143786	0.0106201171875	32.4999999179454	326	0.000910454546101391		
34.0127399141261	0.0106414794921875	32.5999999176929	327	-6.61145750200376E-05	dWE(1).Potential/dt < 1E-06 V/s	
34.1127399138736	0.0106597900390625	32.6999999174404	328	0.00020852308080066		
34.2127399136211	0.0106842041015625	32.799999917188	329	0.000305188121274114		
34.3127399133687	0.01070556640625	32.8999999169355	330	0.000167818085174076		
34.4127399131162	0.0107208251953125	32.999999916683	331	0.000111901485070121		
34.5127399128637	0.0107574462890625	33.0999999164305	332	0.000564576941542327		
34.6127399126112	0.0107696533203125	33.1999999161781	333	-0.000152594060637057	dWE(1).Potential/dt < 1E-06 V/s	
34.7127399123588	0.0107940673828125	33.2999999159256	334	0.000427272054366767		
34.8127399121063	0.0107940673828125	33.3999999156731	335	-0.000244143040617928	dWE(1).Potential/dt < 1E-06 V/s	
34.9127399118538	0.0108123779296875	33.4999999154206	336	0.000417061673942953		
35.0127399116013	0.010821533203125	33.5999999151682	337	-4.57651804026682E-05	dWE(1).Potential/dt < 1E-06 V/s	
35.1127399113489	0.010821533203125	33.6999999149157	338	-4.57900168839842E-05	dWE(1).Potential/dt < 1E-06 V/s	
35.2127399110964	0.0108123779296875	33.7999999146632	339	-0.000137345210532658	dWE(1).Potential/dt < 1E-06 V/s	
35.3127399108439	0.0108367919921875	33.8999999144107	340	0.000554419297259301		
35.4127399105914	0.0108551025390625	33.9999999141583	341	2.03369763767114E-05		
35.512739910339	0.0108489990234375	34.0999999139058	342	-0.000244136841502041	dWE(1).Potential/dt < 1E-06 V/s	
35.6127399100865	0.0108673095703125	34.1999999136533	343	0.000467942911200225		
35.712739909834	0.0108642578125	34.2999999134008	344	-0.000289933057501912	dWE(1).Potential/dt < 1E-06 V/s	
35.8127399095815	0.010882568359375	34.3999999131483	345	0.000432344677392393		
35.912739909329	0.010888671875	34.4999999128959	346	-0.000111923218355514	dWE(1).Potential/dt < 1E-06 V/s	
36.0127399090766	0.0108795166015625	34.5999999126434	347	-0.000178006739588454	dWE(1).Potential/dt < 1E-06 V/s	
36.1127399088241	0.0108795166015625	34.6999999123909	348	0.000127153442008421		
36.2127399085716	0.0108612060546875	34.7999999121384	349	-0.000366214575478807	dWE(1).Potential/dt < 1E-06 V/s	
36.3127399083191	0.0108673095703125	34.899999911886	350	0.000325540633639321		
36.4127399080667	0.0108642578125	34.9999999116335	351	-0.00018821403500624	dWE(1).Potential/dt < 1E-06 V/s	
36.5127399078142	0.0108428955078125	35.099999911381	352	-0.000335695134708658	dWE(1).Potential/dt < 1E-06 V/s	
36.6127399075617	0.010845947265625	35.1999999111285	353	0.000295002566417679		
36.7127399073092	0.0108428955078125	35.2999999108761	354	-0.000162757889484055	dWE(1).Potential/dt < 1E-06 V/s	
36.8127399070568	0.010833740234375	35.3999999106236	355	-0.000122071520308964	dWE(1).Potential/dt < 1E-06 V/s	
36.9127399068043	0.0108154296875	35.4999999103711	356	-0.000239061133470386	dWE(1).Potential/dt < 1E-06 V/s	
37.0127399065518	0.0108154296875	35.5999999101186	357	0.00018311660096515		
37.1127399062993	0.010797119140625	35.6999999098662	358	-0.000396730902139097	dWE(1).Potential/dt < 1E-06 V/s	
37.2127399060469	0.0107818603515625	35.7999999096137	359	-6.61332014715299E-05	dWE(1).Potential/dt < 1E-06 V/s	
37.3127399057944	0.010797119140625	35.8999999093612	360	0.000396721588913351		
37.4127399055419	0.0107879638671875	35.9999999091087	361	-0.00039672470302321	dWE(1).Potential/dt < 1E-06 V/s	
37.5127399052894	0.01077880859375	36.0999999088563	362	-1.01638315754826E-05	dWE(1).Potential/dt < 1E-06 V/s	
37.612739905037	0.0107635498046875	36.1999999086038	363	-0.000203444258659147	dWE(1).Potential/dt < 1E-06 V/s	
37.7127399047845	0.010748291015625	36.2999999083513	364	-0.000132235363707878	dWE(1).Potential/dt < 1E-06 V/s	
37.812739904532	0.0107391357421875	36.3999999080988	365	-4.069878559676E-05	dWE(1).Potential/dt < 1E-06 V/s	
37.9127399042795	0.0107269287109375	36.4999999078464	366	-0.000167830497957766	dWE(1).Potential/dt < 1E-06 V/s	
38.0127399040271	0.01072998046875	36.5999999075939	367	0.000167842910741456		
38.1127399037746	0.010723876953125	36.6999999073414	368	-0.000188210935448296	dWE(1).Potential/dt < 1E-06 V/s	
38.2127399035221	0.010711669921875	36.7999999070889	369	-0.000142392978887074	dWE(1).Potential/dt < 1E-06 V/s	
38.3127399032696	0.0106903076171875	36.8999999068365	370	-0.000269589887466282	dWE(1).Potential/dt < 1E-06 V/s	
38.4127399030172	0.0106597900390625	36.999999906584	371	-0.000350956397596747	dWE(1).Potential/dt < 1E-06 V/s	
38.5127399027647	0.01064453125	37.0999999063315	372	5.07881122757681E-06		
38.6127399025122	0.0106292724609375	37.199999906079	373	-0.000203456685994752	dWE(1).Potential/dt < 1E-06 V/s	
38.7127399022597	0.010614013671875	37.2999999058266	374	-0.000152594060637057	dWE(1).Potential/dt < 1E-06 V/s	
38.8127399020073	0.010601806640625	37.3999999055741	375	-9.66402149060741E-05	dWE(1).Potential/dt < 1E-06 V/s	
38.9127399017548	0.01058349609375	37.4999999053216	376	-0.000244136841502041	dWE(1).Potential/dt < 1E-06 V/s	
39.0127399015023	0.0105621337890625	37.5999999050691	377	-0.000218705536099151	dWE(1).Potential/dt < 1E-06 V/s	
39.1127399012498	0.010546875	37.6999999048167	378	-9.15645068744197E-05	dWE(1).Potential/dt < 1E-06 V/s	
39.2127399009973	0.010540771484375	37.7999999045642	379	-5.09743767906912E-06	dWE(1).Potential/dt < 1E-06 V/s	
39.3127399007449	0.0105133056640625	37.8999999043117	380	-0.000483173149405047	dWE(1).Potential/dt < 1E-06 V/s	
39.4127399004924	0.01051025390625	37.9999999040592	381	0.000244127528276294		
39.5127399002399	0.0104736328125	38.0999999038067	382	-0.000727309961803257	dWE(1).Potential/dt < 1E-06 V/s	
39.6127398999874	0.0104705810546875	38.1999999035543	383	0.000361117126885802		
39.712739899735	0.01046142578125	38.2999999033018	384	-0.00025433482369408	dWE(1).Potential/dt < 1E-06 V/s	
39.8127398994825	0.0104583740234375	38.3999999030493	385	4.07112056564074E-05		
39.91273989923	0.0104461669921875	38.4999999027968	386	-0.000218727262108587	dWE(1).Potential/dt < 1E-06 V/s	
40.0127398989775	0.010430908203125	38.5999999025444	387	-0.000147502840263769	dWE(1).Potential/dt < 1E-06 V/s	
40.1127398987251	0.0104339599609375	38.6999999022919	388	0.000193274230696261		
40.2127398984726	0.0104248046875	38.7999999020394	389	-0.000254294456681237	dWE(1).Potential/dt < 1E-06 V/s	
40.3127398982201	0.0104248046875	38.8999999017869	390	0.000116967879876029		
40.4127398979676	0.0104034423828125	38.9999999015345	391	-0.000422171520767733	dWE(1).Potential/dt < 1E-06 V/s	
40.5127398977152	0.010406494140625	39.099999901282	392	0.00030519743449986		
40.6127398974627	0.010400390625	39.1999999010295	393	-0.000218727262108587	dWE(1).Potential/dt < 1E-06 V/s	
40.7127398972102	0.0104095458984375	39.299999900777	394	0.000249237375101075		
40.8127398969577	0.010418701171875	39.3999999005246	395	4.06677427235991E-05		
40.9127398967053	0.01041259765625	39.4999999002721	396	-0.000188158155651763	dWE(1).Potential/dt < 1E-06 V/s	
41.0127398964528	0.0103973388671875	39.5999999000196	397	-0.000178022266482003	dWE(1).Potential/dt < 1E-06 V/s	
41.1127398962003	0.0103912353515625	39.6999998997671	398	4.57744936284143E-05		
41.2127398959478	0.010394287109375	39.7999998995147	399	7.63001371524297E-05		
41.3127398956954	0.010400390625	39.8999998992622	400	5.59228028578218E-05		
41.4127398954429	0.010400390625	39.9999998990097	401	-6.10326569585595E-05	dWE(1).Potential/dt < 1E-06 V/s	
41.5127398951904	0.0104156494140625	40.0999998987572	402	0.000300081388559192		
41.6127398949379	0.01041259765625	40.1999998985048	403	-0.00023395438620355	dWE(1).Potential/dt < 1E-06 V/s	
41.7127398946855	0.0104156494140625	40.2999998982523	404	0.000142399192554876		
41.812739894433	0.0104217529296875	40.3999998979998	405	6.61300946376286E-05		
41.9127398941805	0.0104156494140625	40.4999998977473	406	-0.000172946558450349	dWE(1).Potential/dt < 1E-06 V/s	
42.012739893928	0.0104248046875	40.5999998974949	407	0.000259410531725734		
42.1127398936756	0.0104339599609375	40.6999998972424	408	4.06677427235991E-05		
42.2127398934231	0.010443115234375	40.7999998969899	409	9.15862401598133E-05		
42.3127398931706	0.0104248046875	40.8999998967374	410	-0.000411995279137045	dWE(1).Potential/dt < 1E-06 V/s	
42.4127398929181	0.0104339599609375	40.999999896485	411	0.000411970453569666		
42.5127398926656	0.0104522705078125	41.0999998962325	412	0.000167867750860751		
42.6127398924132	0.0104583740234375	41.19999989598	413	-7.1205802669283E-05	dWE(1).Potential/dt < 1E-06 V/s	
42.7127398921607	0.0104522705078125	41.2999998957275	414	-0.000122074634418823	dWE(1).Potential/dt < 1E-06 V/s	
42.8127398919082	0.0104736328125	41.399999895475	415	0.000483207288198173		
42.9127398916557	0.010467529296875	41.4999998952226	416	-0.000381475838366896	dWE(1).Potential/dt < 1E-06 V/s	
43.0127398914033	0.0104644775390625	41.5999998949701	417	8.64639659994282E-05		
43.1127398911508	0.010467529296875	41.6999998947176	418	7.12213222868741E-05		
43.2127398908983	0.0104705810546875	41.7999998944651	419	1.01700397863169E-05		
43.3127398906458	0.010491943359375	41.8999998942127	420	0.000366186635801569		
43.4127398903934	0.01048583984375	41.9999998939602	421	-0.000350934686139226	dWE(1).Potential/dt < 1E-06 V/s	
43.5127398901409	0.010498046875	42.0999998937077	422	0.000366192834917456		
43.6127398898884	0.01051025390625	42.1999998934552	423	6.10388669883832E-05		
43.7127398896359	0.010504150390625	42.2999998932028	424	-0.000213598788832314	dWE(1).Potential/dt < 1E-06 V/s	
43.8127398893835	0.0105072021484375	42.3999998929503	425	0.000167824284289964		
43.912739889131	0.01051025390625	42.4999998926978	426	3.10440784190291E-09	dWE(1).Potential/dt < 1E-06 V/s	
44.0127398888785	0.0105194091796875	42.5999998924453	427	0.000142436445457861		
44.112739888626	0.0105194091796875	42.6999998921929	428	-9.66402149060741E-05	dWE(1).Potential/dt < 1E-06 V/s	
44.2127398883736	0.0105377197265625	42.7999998919404	429	0.000366199063137174		
44.3127398881211	0.010546875	42.8999998916879	430	-4.57651804026682E-05	dWE(1).Potential/dt < 1E-06 V/s	
44.4127398878686	0.0105560302734375	42.9999998914354	431	0.000122046687465627		
44.5127398876161	0.0105682373046875	43.099999891183	432	0.000147515253047459		
44.6127398873637	0.01058349609375	43.1999998909305	433	0.00016783359751571		
44.7127398871112	0.010595703125	43.299999890678	434	8.64794856170192E-05		
44.8127398868587	0.0105987548828125	43.3999998904255	435	-3.56199743691832E-05	dWE(1).Potential/dt < 1E-06 V/s	
44.9127398866062	0.0105987548828125	43.4999998901731	436	5.08501989315846E-06		
45.0127398863538	0.010614013671875	43.5999998899206	437	0.000289908231934533		
45.1127398861013	0.0106201171875	43.6999998896681	438	-6.61176818539388E-05	dWE(1).Potential/dt < 1E-06 V/s	
45.2127398858488	0.010626220703125	43.7999998894156	439	9.15614073164761E-05		
45.3127398855963	0.010626220703125	43.8999998891632	440	-5.08564080519136E-05	dWE(1).Potential/dt < 1E-06 V/s	
45.4127398853439	0.0106201171875	43.9999998889107	441	-9.15551936486736E-05	dWE(1).Potential/dt < 1E-06 V/s	
45.5127398850914	0.0106231689453125	44.0999998886582	442	0.000127162755234167		
45.6127398848389	0.0106292724609375	44.1999998884057	443	5.59228028578218E-05		
45.7127398845864	0.0106414794921875	44.2999998881533	444	0.00016278272960335		
45.812739884334	0.010662841796875	44.3999998879008	445	0.000269558833679184		
45.9127398840815	0.0106597900390625	44.4999998876483	446	-0.000264476926531643	dWE(1).Potential/dt < 1E-06 V/s	
46.012739883829	0.01068115234375	44.5999998873958	447	0.0004984499537386		
46.1127398835765	0.0106781005859375	44.6999998871433	448	-0.000315355049679056	dWE(1).Potential/dt < 1E-06 V/s	
46.212739883324	0.0106964111328125	44.7999998868909	449	0.000442520919023082		
46.3127398830716	0.0107025146484375	44.8999998866384	450	-0.000111895278678276	dWE(1).Potential/dt < 1E-06 V/s	
46.4127398828191	0.010699462890625	44.9999998863859	451	-6.61207814118825E-05	dWE(1).Potential/dt < 1E-06 V/s	
46.5127398825666	0.010699462890625	45.0999998861334	452	5.59414293093141E-05		
46.6127398823141	0.0107177734375	45.199999885881	453	0.000325522007187828		
46.7127398820617	0.0107147216796875	45.2999998856285	454	-0.000269565032795072	dWE(1).Potential/dt < 1E-06 V/s	
46.8127398818092	0.0107421875	45.399999885376	455	0.000600165862124413		
46.9127398815567	0.0107452392578125	45.4999998851235	456	-0.000274646969046444	dWE(1).Potential/dt < 1E-06 V/s	
47.0127398813042	0.0107666015625	45.5999998848711	457	0.000447565573267639		
47.1127398810518	0.0107666015625	45.6999998846186	458	-0.00023905182024464	dWE(1).Potential/dt < 1E-06 V/s	
47.2127398807993	0.010791015625	45.7999998843661	459	0.000518805522006005		
47.3127398805468	0.0107940673828125	45.8999998841136	460	-0.000228887991397642	dWE(1).Potential/dt < 1E-06 V/s	
47.4127398802943	0.010797119140625	45.9999998838612	461	0.00010171902977163		
47.5127398800419	0.0108123779296875	46.0999998836087	462	0.000254309998126701		
47.6127398797894	0.0108062744140625	46.1999998833562	463	-0.000279738189419731	dWE(1).Potential/dt < 1E-06 V/s	
47.7127398795369	0.0108245849609375	46.2999998831037	464	0.000457757356343791		
47.8127398792844	0.0108306884765625	46.3999998828513	465	-0.000122071520308964	dWE(1).Potential/dt < 1E-06 V/s	
47.912739879032	0.0108367919921875	46.4999998825988	466	0.000101746969448868		
48.0127398787795	0.0108642578125	46.5999998823463	467	0.000452653708634898		
48.112739878527	0.0108673095703125	46.6999998820938	468	-0.000244127528276294	dWE(1).Potential/dt < 1E-06 V/s	
48.2127398782745	0.0108642578125	46.7999998818414	469	-1.55220387654253E-08	dWE(1).Potential/dt < 1E-06 V/s	
48.3127398780221	0.0108917236328125	46.8999998815889	470	0.000549318734556437		
48.4127398777696	0.010882568359375	46.9999998813364	471	-0.000498434412293136	dWE(1).Potential/dt < 1E-06 V/s	
48.5127398775171	0.01087646484375	47.0999998810839	472	8.6439133156091E-05		
48.6127398772646	0.010882568359375	47.1999998808315	473	0.000152615786646493		
48.7127398770122	0.010894775390625	47.299999880579	474	0.000132219836814329		
48.8127398767597	0.010906982421875	47.3999998803265	475	0.000101728342997376		
48.9127398765072	0.0109130859375	47.499999880074	476	1.01917712527211E-05		
49.0127398762547	0.0109130859375	47.5999998798216	477	-3.05349567497615E-05	dWE(1).Potential/dt < 1E-06 V/s	
49.1127398760023	0.0109130859375	47.6999998795691	478	2.03431845875457E-05		
49.2127398757498	0.0109283447265625	47.7999998793166	479	0.00027974130352959		
49.3127398754973	0.01092529296875	47.8999998790641	480	-0.000233976112212986	dWE(1).Potential/dt < 1E-06 V/s	
49.4127398752448	0.0109222412109375	47.9999998788116	481	3.05194334941916E-05		
49.5127398749923	0.0109222412109375	48.0999998785592	482	2.54406222666148E-05		
49.6127398747399	0.0109283447265625	48.1999998783067	483	0.000101737656223122		
49.7127398744874	0.0109405517578125	48.2999998780542	484	0.000152566120959818		
49.8127398742349	0.0109405517578125	48.3999998778017	485	-0.000122062214359175	dWE(1).Potential/dt < 1E-06 V/s	
49.9127398739824	0.010931396484375	48.4999998775493	486	-0.000127147228340618	dWE(1).Potential/dt < 1E-06 V/s	
50.01273987373	0.0109466552734375	48.5999998772968	487	0.000386560859624296		
50.1127398734775	0.0109619140625	48.6999998770443	488	7.12151158950292E-05		
50.212739873225	0.010968017578125	48.7999998767918	489	-1.52674783748807E-05	dWE(1).Potential/dt < 1E-06 V/s	
50.3127398729725	0.0109771728515625	48.8999998765394	490	0.000147527665831149		
50.4127398727201	0.0109710693359375	48.9999998762869	491	-0.000198377863853239	dWE(1).Potential/dt < 1E-06 V/s	
50.5127398724676	0.0109771728515625	49.0999998760344	492	0.000213636027183384		
50.6127398722151	0.0109832763671875	49.1999998757819	493	2.03338713617995E-05		
50.7127398719626	0.01099853515625	49.2999998755295	494	0.000228894205065444		
50.8127398717102	0.0109954833984375	49.399999875277	495	-0.000213626713957638	dWE(1).Potential/dt < 1E-06 V/s	
50.9127398714577	0.010986328125	49.4999998750245	496	-8.13820515759289E-05	dWE(1).Potential/dt < 1E-06 V/s	
51.0127398712052	0.0109954833984375	49.599999874772	497	0.000264473812421784		
51.1127398709527	0.0110107421875	49.6999998745196	498	0.000142411605338566		
51.2127398707003	0.0110198974609375	49.7999998742671	499	2.03524978132918E-05		
51.3127398704478	0.011016845703125	49.8999998740146	500	-0.000111913905129768	dWE(1).Potential/dt < 1E-06 V/s	
51.4127398701953	0.0110260009765625	49.9999998737621	501	0.00023396679898724		
51.5127398699428	0.01102294921875	50.0999998735097	502	-0.00017291861877311	dWE(1).Potential/dt < 1E-06 V/s	
51.6127398696904	0.0110260009765625	50.1999998732572	503	0.000122052901133429		
51.7127398694379	0.01102294921875	50.2999998730047	504	-0.000101706609711982	dWE(1).Potential/dt < 1E-06 V/s	
51.8127398691854	0.01103515625	50.3999998727522	505	0.00026956814690493		
51.9127398689329	0.01103515625	50.4999998724998	506	-0.000152594060637057	dWE(1).Potential/dt < 1E-06 V/s	
52.0127398686805	0.011053466796875	50.5999998722473	507	0.000376384617993608		
52.112739868428	0.0110565185546875	50.6999998719948	508	-0.000157682181452401	dWE(1).Potential/dt < 1E-06 V/s	
52.2127398681755	0.01104736328125	50.7999998717423	509	-0.000142408505780622	dWE(1).Potential/dt < 1E-06 V/s	
52.312739867923	0.0110595703125	50.8999998714899	510	0.000340770842740312		
52.4127398676706	0.0110687255859375	50.9999998712374	511	-5.0601847760845E-06	dWE(1).Potential/dt < 1E-06 V/s	
52.5127398674181	0.0110687255859375	51.0999998709849	512	-6.61238882457837E-05	dWE(1).Potential/dt < 1E-06 V/s	
52.6127398671656	0.01107177734375	51.1999998707324	513	8.6454652773682E-05		
52.7127398669131	0.0110748291015625	51.29999987048	514	2.03462896024575E-05		
52.8127398666606	0.0110687255859375	51.3999998702275	515	-0.000137307957629673	dWE(1).Potential/dt < 1E-06 V/s	
52.9127398664082	0.011083984375	51.499999869975	516	0.000361123355105519		
53.0127398661557	0.01109619140625	51.5999998697225	517	2.54344140557805E-05		
53.1127398659032	0.011102294921875	51.69999986947	518	2.03214531211415E-05		
53.2127398656507	0.011102294921875	51.7999998692176	519	-3.05163284792798E-05	dWE(1).Potential/dt < 1E-06 V/s	
53.3127398653983	0.0111114501953125	51.8999998689651	520	0.000188198522664607		
53.4127398651458	0.011090087890625	51.9999998687126	521	-0.000498474750202149	dWE(1).Potential/dt < 1E-06 V/s	
53.5127398648933	0.0111114501953125	52.0999998684601	522	0.000671415124088526		
53.6127398646408	0.0111175537109375	52.1999998682077	523	-0.000208569646929391	dWE(1).Potential/dt < 1E-06 V/s	
53.7127398643884	0.0111175537109375	52.2999998679552	524	3.10440784190291E-09	dWE(1).Potential/dt < 1E-06 V/s	
53.8127398641359	0.0111358642578125	52.3999998677027	525	0.00035603521973826		
53.9127398638834	0.0111480712890625	52.4999998674502	526	1.01762489066459E-05		
54.0127398636309	0.0111572265625	52.5999998671978	527	8.64701723912731E-05		
54.1127398633785	0.0111480712890625	52.6999998669453	528	-0.000233994738664478	dWE(1).Potential/dt < 1E-06 V/s	
54.212739863126	0.0111663818359375	52.7999998666928	529	0.000473031046567485		
54.3127398628735	0.0111541748046875	52.8999998664403	530	-0.000467924284748733	dWE(1).Potential/dt < 1E-06 V/s	
54.412739862621	0.0111572265625	52.9999998661879	531	0.000259398104390129		
54.5127398623686	0.01116943359375	53.0999998659354	532	0.00014748731337022		
54.6127398621161	0.0111663818359375	53.1999998656829	533	-0.00018818920943886	dWE(1).Potential/dt < 1E-06 V/s	
54.7127398618636	0.0111663818359375	53.2999998654304	534	7.63032367103733E-05		
54.8127398616111	0.011175537109375	53.399999865178	535	0.000157691494678147		
54.9127398613587	0.0111785888671875	53.4999998649255	536	-5.08843477291521E-05	dWE(1).Potential/dt < 1E-06 V/s	
55.0127398611062	0.0111785888671875	53.599999864673	537	-5.08812445332296E-06	dWE(1).Potential/dt < 1E-06 V/s	
55.1127398608537	0.0111785888671875	53.6999998644205	538	1.01638315754826E-05		
55.2127398606012	0.011187744140625	53.7999998641681	539	0.000167855338077061		
55.3127398603488	0.011187744140625	53.8999998639156	540	-0.000106822670204565	dWE(1).Potential/dt < 1E-06 V/s	
55.4127398600963	0.0111846923828125	53.9999998636631	541	-2.5437517251703E-05	dWE(1).Potential/dt < 1E-06 V/s	
55.5127398598438	0.0111846923828125	54.0999998634106	542	3.5610661143437E-05		
55.6127398595913	0.01119384765625	54.1999998631582	543	0.000157663555000909		
55.7127398593389	0.0111907958984375	54.2999998629057	544	-0.000162745476700366	dWE(1).Potential/dt < 1E-06 V/s	
55.8127398590864	0.011187744140625	54.3999998626532	545	1.01700397863169E-05		
55.9127398588339	0.0111846923828125	54.4999998624007	546	-3.05287467199378E-05	dWE(1).Potential/dt < 1E-06 V/s	
56.0127398585814	0.011187744140625	54.5999998621483	547	8.13913648016751E-05		
56.112739858329	0.011187744140625	54.6999998618958	548	-4.5786910050083E-05	dWE(1).Potential/dt < 1E-06 V/s	
56.2127398580765	0.011199951171875	54.7999998616433	549	0.000233960599871352		
56.312739857824	0.0112091064453125	54.8999998613908	550	2.54282040259568E-05		
56.4127398575715	0.0112060546875	54.9999998611383	551	-0.000122056000691373	dWE(1).Potential/dt < 1E-06 V/s	
56.512739857319	0.0112091064453125	55.0999998608859	552	0.000122052901133429		
56.6127398570666	0.0112274169921875	55.1999998606334	553	0.000289920659270138		
56.7127398568141	0.0111968994140625	55.2999998603809	554	-0.0007629330502823	dWE(1).Potential/dt < 1E-06 V/s	
56.8127398565616	0.011181640625	55.3999998601284	555	0.000137332797748968		
56.9127398563091	0.0111907958984375	55.499999859876	556	0.000244158582063392		
57.0127398560567	0.011187744140625	55.5999998596235	557	-0.000213629828067496	dWE(1).Potential/dt < 1E-06 V/s	
57.1127398558042	0.011187744140625	55.699999859371	558	6.61145750200376E-05		
57.2127398555517	0.0112060546875	55.7999998591185	559	0.000325522007187828		
57.3127398552992	0.0112152099609375	55.8999998588661	560	-4.57744936284143E-05	dWE(1).Potential/dt < 1E-06 V/s	
57.4127398550468	0.011212158203125	55.9999998586136	561	-0.000101728342997376	dWE(1).Potential/dt < 1E-06 V/s	
57.5127398547943	0.0112213134765625	56.0999998583611	562	0.000233991639106534		
57.6127398545418	0.0112030029296875	56.1999998581086	563	-0.000452684762421995	dWE(1).Potential/dt < 1E-06 V/s	
57.7127398542893	0.0112030029296875	56.2999998578562	564	0.000244133741944097		
57.8127398540369	0.0112152099609375	56.3999998576037	565	0.000162751690368168		
57.9127398537844	0.0112335205078125	56.4999998573512	566	0.000193289743037894		
58.0127398535319	0.01124267578125	56.5999998570987	567	-5.10675090481527E-06	dWE(1).Potential/dt < 1E-06 V/s	
58.1127398532794	0.011212158203125	56.6999998568463	568	-0.000605247798375785	dWE(1).Potential/dt < 1E-06 V/s	
58.212739853027	0.011224365234375	56.7999998565938	569	0.000610348302870989		
58.3127398527745	0.0112457275390625	56.8999998563413	570	0.00014749972615391		
58.412739852522	0.0112457275390625	56.9999998560888	571	-0.000208538593142293	dWE(1).Potential/dt < 1E-06 V/s	
58.5127398522695	0.01124267578125	57.0999998558364	572	1.52550601342227E-05		
58.6127398520171	0.0112457275390625	57.1999998555839	573	9.1567613708321E-05		
58.7127398517646	0.0112518310546875	57.2999998553314	574	6.61238882457837E-05		
58.8127398515121	0.0112548828125	57.3999998550789	575	-5.10054223923362E-06	dWE(1).Potential/dt < 1E-06 V/s	
58.9127398512596	0.0112579345703125	57.4999998548265	576	4.06925792049151E-05		
59.0127398510072	0.0112579345703125	57.599999854574	577	-2.54251008300344E-05	dWE(1).Potential/dt < 1E-06 V/s	
59.1127398507547	0.011260986328125	57.6999998543215	578	6.61300946376286E-05		
59.2127398505022	0.0112579345703125	57.799999854069	579	-9.15645068744197E-05	dWE(1).Potential/dt < 1E-06 V/s	
59.3127398502497	0.0112579345703125	57.8999998538166	580	4.5786910050083E-05		
59.4127398499973	0.0112701416015625	57.9999998535641	581	0.00021362051484175		
59.5127398497448	0.011273193359375	58.0999998533116	582	-8.64732792251743E-05	dWE(1).Potential/dt < 1E-06 V/s	
59.6127398494923	0.0112640380859375	58.1999998530591	583	-0.000162742377142422	dWE(1).Potential/dt < 1E-06 V/s	
59.7127398492398	0.011285400390625	58.2999998528066	584	0.000508595141582191		
59.8127398489873	0.011273193359375	58.3999998525542	585	-0.000503531831782311	dWE(1).Potential/dt < 1E-06 V/s	
59.9127398487349	0.011273193359375	58.4999998523017	586	0.000213629828067496		
60.0127398484824	0.0112823486328125	58.5999998520492	587	0.000127175168017857		
60.1127398482299	0.011273193359375	58.6999998517967	588	-0.000274674908723682	dWE(1).Potential/dt < 1E-06 V/s	
60.2127398479774	0.011279296875	58.7999998515443	589	0.00024924980243668		
60.312739847725	0.011285400390625	58.8999998512918	590	1.01389960036613E-05		
60.4127398474725	0.0112762451171875	58.9999998510393	591	-0.000218696222873405	dWE(1).Potential/dt < 1E-06 V/s	
60.51273984722	0.0112762451171875	59.0999998507868	592	0.000127153442008421		
60.6127398469675	0.0112701416015625	59.1999998505344	593	-0.000142424018122256	dWE(1).Potential/dt < 1E-06 V/s	
60.7127398467151	0.0112762451171875	59.2999998502819	594	0.000183110387297347		
60.8127398464626	0.01126708984375	59.3999998500294	595	-0.000259391905274242	dWE(1).Potential/dt < 1E-06 V/s	
60.9127398462101	0.011236572265625	59.4999998497769	596	-0.000432326050940901	dWE(1).Potential/dt < 1E-06 V/s	
61.0127398459576	0.0112060546875	59.5999998495245	597	-0.000233960599871352	dWE(1).Potential/dt < 1E-06 V/s	
61.1127398457052	0.011175537109375	59.699999849272	598	-0.000305169494822621	dWE(1).Potential/dt < 1E-06 V/s	
61.2127398454527	0.0111328125	59.7999998490195	599	-0.000528984877746552	dWE(1).Potential/dt < 1E-06 V/s	
61.3127398452002	0.011138916015625	59.899999848767	600	0.000508632394485176		
