Time (s)	WE(1).Potential (V)	Corrected time (s)	Index	dWE(1).Potential/dt (V/s)	Cutoffs	OCP value (V)
1.44874199634228	-0.00457763671875	0	1	0	dWE(1).Potential/dt < 1E-06 V/s	-0.00471032834520527
1.5487419960898	-0.004559326171875	0.0999999997475243	2	0.000183107287739404		
1.64874199583733	-0.00455322265624999	0.199999999495049	3	0	dWE(1).Potential/dt < 1E-06 V/s	
1.74874199558485	-0.00454101562500001	0.299999999242573	4	0.000213614301173948		
1.84874199533238	-0.00452575683593751	0.399999998990097	5	0.000157682181452401		
1.9487419950799	-0.00450744628906249	0.499999998737621	6	0.000198370107682422		
2.04874199482742	-0.00449218749999999	0.599999998485146	7	0.000116975643322803		
2.14874199457495	-0.0044891357421875	0.69999999823267	8	-6.10435236012563E-05	dWE(1).Potential/dt < 1E-06 V/s	
2.24874199432247	-0.0044891357421875	0.799999997980194	9	1.52597167470958E-05		
2.34874199407	-0.004473876953125	0.899999997727718	10	0.000289912888547406		
2.44874199381752	-0.00447692871093749	0.999999997475243	11	-0.000233963699429296	dWE(1).Potential/dt < 1E-06 V/s	
2.54874199356505	-0.00446472167968751	1.09999999722277	12	0.000310251401970163		
2.64874199331257	-0.0044586181640625	1.19999999697029	13	-4.06832659791689E-05	dWE(1).Potential/dt < 1E-06 V/s	
2.74874199306009	-0.00445556640625	1.29999999671782	14	2.54297574429074E-05		
2.84874199280762	-0.00446166992187499	1.39999999646534	15	-0.00012715499906335	dWE(1).Potential/dt < 1E-06 V/s	
2.94874199255514	-0.0044525146484375	1.49999999621286	16	0.0002492249768693		
3.04874199230267	-0.00445556640625	1.59999999596039	17	-0.00018310418818146	dWE(1).Potential/dt < 1E-06 V/s	
3.14874199205019	-0.00444946289062501	1.69999999570791	18	0.00017801760986913		
3.24874199179771	-0.00445556640625	1.79999999545544	19	-0.000193271116586402	dWE(1).Potential/dt < 1E-06 V/s	
3.34874199154524	-0.00444946289062501	1.89999999520296	20	0.000203444258659147		
3.44874199129276	-0.0044525146484375	1.99999999495049	21	-0.00014748887042515	dWE(1).Potential/dt < 1E-06 V/s	
3.54874199104029	-0.0044525146484375	2.09999999469801	22	5.59476393391378E-05		
3.64874199078781	-0.00445556640625	2.19999999444553	23	-6.61223311908543E-05	dWE(1).Potential/dt < 1E-06 V/s	
3.74874199053534	-0.00444946289062501	2.29999999419306	24	0.00014749972615391		
3.84874199028286	-0.0044525146484375	2.39999999394058	25	-0.000137317270855419	dWE(1).Potential/dt < 1E-06 V/s	
3.94874199003038	-0.00444946289062501	2.49999999368811	26	0.000111889065010473		
4.04874198977791	-0.00444641113281249	2.59999999343563	27	1.01840096249362E-05		
4.14874198952543	-0.00444641113281249	2.69999999318316	28	-2.54406222666148E-05	dWE(1).Potential/dt < 1E-06 V/s	
4.24874198927296	-0.00444641113281249	2.79999999293068	29	1.01715922937728E-05		
4.34874198902048	-0.004443359375	2.8999999926782	30	5.59398758923635E-05		
4.44874198876801	-0.004443359375	2.99999999242573	31	-3.56029013346415E-05	dWE(1).Potential/dt < 1E-06 V/s	
4.54874198851553	-0.00444946289062501	3.09999999217325	32	-0.000101726785942446	dWE(1).Potential/dt < 1E-06 V/s	
4.64874198826305	-0.004443359375	3.19999999192078	33	0.000183107287739404		
4.74874198801058	-0.004437255859375	3.2999999916683	34	2.034939279838E-05		
4.8487419877581	-0.00443115234374999	3.39999999141583	35	6.10342103755102E-05		
4.94874198750563	-0.00443115234374999	3.49999999116335	36	-5.08657212776598E-05	dWE(1).Potential/dt < 1E-06 V/s	
5.04874198725315	-0.0044281005859375	3.59999999091087	37	7.62846175348386E-05		
5.14874198700068	-0.0044281005859375	3.6999999906584	38	-3.56029013346415E-05	dWE(1).Potential/dt < 1E-06 V/s	
5.2487419867482	-0.0044281005859375	3.79999999040592	39	1.01684881883557E-05		
5.34874198649572	-0.004425048828125	3.89999999015345	40	5.59507425350603E-05		
5.44874198624325	-0.004425048828125	3.99999998990097	41	-3.56044547515921E-05	dWE(1).Potential/dt < 1E-06 V/s	
5.54874198599077	-0.004425048828125	4.0999999896485	42	1.01731448012288E-05		
5.6487419857383	-0.00441894531250001	4.19999998939602	43	0.000111895278678276		
5.74874198548582	-0.004425048828125	4.29999998914354	44	-0.000183097974513657	dWE(1).Potential/dt < 1E-06 V/s	
5.84874198523335	-0.0044281005859375	4.39999998889107	45	3.5595141525846E-05		
5.94874198498087	-0.0044281005859375	4.49999998863859	46	1.52566126416787E-05		
6.04874198472839	-0.0044219970703125	4.59999998838612	47	0.00010173144255532		
6.14874198447592	-0.0044281005859375	4.69999998813364	48	-0.000183113501407206	dWE(1).Potential/dt < 1E-06 V/s	
6.24874198422344	-0.00443420410156251	4.79999998788116	49	-2.03431845875457E-05	dWE(1).Potential/dt < 1E-06 V/s	
6.34874198397097	-0.0044403076171875	4.89999998762869	50	-6.10295537626371E-05	dWE(1).Potential/dt < 1E-06 V/s	
6.44874198371849	-0.0044403076171875	4.99999998737621	51	5.08595148858149E-05		
6.54874198346602	-0.0044525146484375	5.09999998712374	52	-0.000244135284447111	dWE(1).Potential/dt < 1E-06 V/s	
6.64874198321354	-0.00446166992187499	5.19999998687126	53	-2.54313090408687E-05	dWE(1).Potential/dt < 1E-06 V/s	
6.74874198296106	-0.004473876953125	5.29999998661879	54	-0.00015768529556226	dWE(1).Potential/dt < 1E-06 V/s	
6.84874198270859	-0.0044830322265625	5.39999998636631	55	-5.59383261133917E-05	dWE(1).Potential/dt < 1E-06 V/s	
6.94874198245611	-0.0044891357421875	5.49999998611383	56	-4.57853602711111E-05	dWE(1).Potential/dt < 1E-06 V/s	
7.04874198220364	-0.00449523925781251	5.59999998586136	57	-7.1205802669283E-05	dWE(1).Potential/dt < 1E-06 V/s	
7.14874198195116	-0.00449218749999999	5.69999998560888	58	0.000106819570646621		
7.24874198169869	-0.004486083984375	5.79999998535641	59	5.59383261133917E-05		
7.34874198144621	-0.004486083984375	5.89999998510393	60	-6.10311071795877E-05	dWE(1).Potential/dt < 1E-06 V/s	
7.44874198119373	-0.0044830322265625	5.99999998485146	61	7.62985800975002E-05		
7.54874198094126	-0.0044708251953125	6.09999998459898	62	0.00018818920943886		
7.64874198068878	-0.0044677734375	6.1999999843465	63	-7.62877170927823E-05	dWE(1).Potential/dt < 1E-06 V/s	
7.74874198043631	-0.00446472167968751	6.29999998409403	64	6.10295537626371E-05		
7.84874198018383	-0.00446166992187499	6.39999998384155	65	3.05287467199378E-05		
7.94874197993136	-0.00446166992187499	6.49999998358908	66	-2.54406222666148E-05	dWE(1).Potential/dt < 1E-06 V/s	
8.04874197967888	-0.0044677734375	6.5999999833366	67	-0.000101723686384503	dWE(1).Potential/dt < 1E-06 V/s	
8.1487419794264	-0.004473876953125	6.69999998308413	68	-4.06941289838869E-05	dWE(1).Potential/dt < 1E-06 V/s	
8.24874197917393	-0.004473876953125	6.79999998283165	69	5.08610646647867E-05		
8.34874197892145	-0.0044830322265625	6.89999998257917	70	-0.000188186095329002	dWE(1).Potential/dt < 1E-06 V/s	
8.44874197866898	-0.0044891357421875	6.9999999823267	71	-5.09433311890461E-06	dWE(1).Potential/dt < 1E-06 V/s	
8.5487419784165	-0.00450439453125	7.09999998207422	72	-0.000239054919802584	dWE(1).Potential/dt < 1E-06 V/s	
8.64874197816403	-0.0045166015625	7.19999998182175	73	-6.61207814118825E-05	dWE(1).Potential/dt < 1E-06 V/s	
8.74874197791155	-0.0045318603515625	7.29999998156927	74	-0.000188192308996804	dWE(1).Potential/dt < 1E-06 V/s	
8.84874197765907	-0.0045501708984375	7.3999999813168	75	-0.000198368550627492	dWE(1).Potential/dt < 1E-06 V/s	
8.9487419774066	-0.00457153320312501	7.49999998106432	76	-0.000228881777729839	dWE(1).Potential/dt < 1E-06 V/s	
9.04874197715412	-0.004595947265625	7.59999998081184	77	-0.000259398104390129	dWE(1).Potential/dt < 1E-06 V/s	
9.14874197690165	-0.0046112060546875	7.69999998055937	78	-6.61269878037274E-05	dWE(1).Potential/dt < 1E-06 V/s	
9.24874197664917	-0.0046356201171875	7.79999998030689	79	-0.000350945541867986	dWE(1).Potential/dt < 1E-06 V/s	
9.3487419763967	-0.004656982421875	7.89999998005442	80	-0.000157682181452401	dWE(1).Potential/dt < 1E-06 V/s	
9.44874197614422	-0.00467834472656251	7.99999997980194	81	-0.000223793656914495	dWE(1).Potential/dt < 1E-06 V/s	
9.54874197589174	-0.00470581054687499	8.09999997954947	82	-0.000325512693962082	dWE(1).Potential/dt < 1E-06 V/s	
9.64874197563927	-0.004730224609375	8.19999997929699	83	-0.000198374764295295	dWE(1).Potential/dt < 1E-06 V/s	
9.74874197538679	-0.00475158691406249	8.29999997904451	84	-0.000198357694898732	dWE(1).Potential/dt < 1E-06 V/s	
9.84874197513432	-0.00476989746093751	8.39999997879204	85	-0.000167856880580075	dWE(1).Potential/dt < 1E-06 V/s	
9.94874197488184	-0.004791259765625	8.49999997853956	86	-0.000249215663643554	dWE(1).Potential/dt < 1E-06 V/s	
10.0487419746294	-0.0048095703125	8.59999997828709	87	-0.000147510596434586	dWE(1).Potential/dt < 1E-06 V/s	
10.1487419743769	-0.0048187255859375	8.69999997803461	88	-2.54235474130837E-05	dWE(1).Potential/dt < 1E-06 V/s	
10.2487419741244	-0.00482788085937499	8.79999997778214	89	-0.000122071520308964	dWE(1).Potential/dt < 1E-06 V/s	
10.3487419738719	-0.00484313964843749	8.89999997752966	90	-0.000203453571884893	dWE(1).Potential/dt < 1E-06 V/s	
10.4487419736195	-0.0048492431640625	8.99999997727718	91	3.56044547515921E-05		
10.548741973367	-0.00485839843749999	9.09999997702471	92	-0.000147498183650896	dWE(1).Potential/dt < 1E-06 V/s	
10.6487419731145	-0.00487060546875	9.19999997677223	93	-0.000137340553919785	dWE(1).Potential/dt < 1E-06 V/s	
10.748741972862	-0.00487670898437501	9.29999997651976	94	3.10440784190291E-09	dWE(1).Potential/dt < 1E-06 V/s	
10.8487419726096	-0.00488891601562499	9.39999997626728	95	-0.000193269574083388	dWE(1).Potential/dt < 1E-06 V/s	
10.9487419723571	-0.0048980712890625	9.49999997601481	96	-4.5786910050083E-05	dWE(1).Potential/dt < 1E-06 V/s	
11.0487419721046	-0.00490417480468749	9.59999997576233	97	-4.57698370155413E-05	dWE(1).Potential/dt < 1E-06 V/s	
11.1487419718521	-0.0049102783203125	9.69999997550985	98	-7.12104592821561E-05	dWE(1).Potential/dt < 1E-06 V/s	
11.2487419715997	-0.00492248535156251	9.79999997525738	99	-0.000172934145666659	dWE(1).Potential/dt < 1E-06 V/s	
11.3487419713472	-0.004925537109375	9.8999999750049	100	6.61347512505017E-05		
11.4487419710947	-0.00494384765625	9.99999997475243	101	-0.000340786384185776	dWE(1).Potential/dt < 1E-06 V/s	
11.5487419708422	-0.0049560546875	10.0999999745	102	-2.03385279746726E-05	dWE(1).Potential/dt < 1E-06 V/s	
11.6487419705898	-0.0049713134765625	10.1999999742475	103	-0.000198362351511605	dWE(1).Potential/dt < 1E-06 V/s	
11.7487419703373	-0.00498352050781251	10.299999973995	104	-8.64701723912731E-05	dWE(1).Potential/dt < 1E-06 V/s	
11.8487419700848	-0.00499877929687501	10.3999999737425	105	-0.000188186095329002	dWE(1).Potential/dt < 1E-06 V/s	
11.9487419698323	-0.00499877929687501	10.49999997349	106	0.000137329683639109		
12.0487419695799	-0.005023193359375	10.5999999732376	107	-0.000498454610351473	dWE(1).Potential/dt < 1E-06 V/s	
12.1487419693274	-0.00504455566406251	10.6999999729851	108	-0.000106814914033748	dWE(1).Potential/dt < 1E-06 V/s	
12.2487419690749	-0.00505676269531249	10.7999999727326	109	-5.59398758923635E-05	dWE(1).Potential/dt < 1E-06 V/s	
12.3487419688224	-0.00507507324218751	10.8999999724801	110	-0.000264498637989163	dWE(1).Potential/dt < 1E-06 V/s	
12.4487419685699	-0.00508728027343749	10.9999999722277	111	-5.08486482431181E-05	dWE(1).Potential/dt < 1E-06 V/s	
12.5487419683175	-0.00510559082031251	11.0999999719752	112	-0.000254327052971348	dWE(1).Potential/dt < 1E-06 V/s	
12.648741968065	-0.00512084960937501	11.1999999717227	113	-0.000106802493974101	dWE(1).Potential/dt < 1E-06 V/s	
12.7487419678125	-0.00513610839843751	11.2999999714702	114	-0.000162759446538985	dWE(1).Potential/dt < 1E-06 V/s	
12.84874196756	-0.00514831542968749	11.3999999712178	115	-9.66324587352574E-05	dWE(1).Potential/dt < 1E-06 V/s	
12.9487419673076	-0.00516357421874999	11.4999999709653	116	-0.000188200065167621	dWE(1).Potential/dt < 1E-06 V/s	
13.0487419670551	-0.005169677734375	11.5999999707128	117	2.54328606388299E-05		
13.1487419668026	-0.00517883300781249	11.6999999704603	118	-0.000147498183650896	dWE(1).Potential/dt < 1E-06 V/s	
13.2487419665501	-0.00518798828125	11.7999999702079	119	-8.1386708188802E-05	dWE(1).Potential/dt < 1E-06 V/s	
13.3487419662977	-0.00519714355468751	11.8999999699554	120	-9.155209409073E-05	dWE(1).Potential/dt < 1E-06 V/s	
13.4487419660452	-0.0052001953125	11.9999999697029	121	2.03571544261649E-05		
13.5487419657927	-0.00521240234375001	12.0999999694504	122	-0.000218717948882841	dWE(1).Potential/dt < 1E-06 V/s	
13.6487419655402	-0.00522766113281251	12.199999969198	123	-0.000147495069541037	dWE(1).Potential/dt < 1E-06 V/s	
13.7487419652878	-0.00523681640625	12.2999999689455	124	-3.05194334941916E-05	dWE(1).Potential/dt < 1E-06 V/s	
13.8487419650353	-0.0052490234375	12.399999968693	125	-0.000167847567354329	dWE(1).Potential/dt < 1E-06 V/s	
13.9487419647828	-0.00525512695312499	12.4999999684405	126	1.55220392095146E-09	dWE(1).Potential/dt < 1E-06 V/s	
14.0487419645303	-0.005267333984375	12.5999999681881	127	-0.000193289743037894	dWE(1).Potential/dt < 1E-06 V/s	
14.1487419642779	-0.0052764892578125	12.6999999679356	128	-4.57651804026682E-05	dWE(1).Potential/dt < 1E-06 V/s	
14.2487419640254	-0.00528564453124999	12.7999999676831	129	-0.000101726785942446	dWE(1).Potential/dt < 1E-06 V/s	
14.3487419637729	-0.00528564453124999	12.8999999674306	130	7.62908239266835E-05		
14.4487419635204	-0.005291748046875	12.9999999671782	131	-0.00014241470489651	dWE(1).Potential/dt < 1E-06 V/s	
14.548741963268	-0.00528869628906251	13.0999999669257	132	0.00012715499906335		
14.6487419630155	-0.005291748046875	13.1999999666732	133	-0.0001118844083976	dWE(1).Potential/dt < 1E-06 V/s	
14.748741962763	-0.0052978515625	13.2999999664207	134	-6.61332014715299E-05	dWE(1).Potential/dt < 1E-06 V/s	
14.8487419625105	-0.0052947998046875	13.3999999661683	135	0.000116988056106493		
14.9487419622581	-0.00530090332031249	13.4999999659158	136	-0.000167846024851315	dWE(1).Potential/dt < 1E-06 V/s	
15.0487419620056	-0.0052947998046875	13.5999999656633	137	0.000193271116586402		
15.1487419617531	-0.0052978515625	13.6999999654108	138	-0.000147502840263769	dWE(1).Potential/dt < 1E-06 V/s	
15.2487419615006	-0.0052947998046875	13.7999999651583	139	0.000111899935291149		
15.3487419612482	-0.00528564453124999	13.8999999649059	140	0.000122071520308964		
15.4487419609957	-0.0052825927734375	13.9999999646534	141	-4.07018924306612E-05	dWE(1).Potential/dt < 1E-06 V/s	
15.5487419607432	-0.0052825927734375	14.0999999644009	142	-5.08501989315846E-06	dWE(1).Potential/dt < 1E-06 V/s	
15.6487419604907	-0.00527038574218749	14.1999999641484	143	0.000233971455600113		
15.7487419602382	-0.00527343750000001	14.299999963896	144	-0.000198374764295295	dWE(1).Potential/dt < 1E-06 V/s	
15.8487419599858	-0.0052642822265625	14.3999999636435	145	0.000244152353843674		
15.9487419597333	-0.00525817871093751	14.499999963391	146	-5.09278106619604E-06	dWE(1).Potential/dt < 1E-06 V/s	
16.0487419594808	-0.00525512695312499	14.5999999631385	147	1.5269029972842E-05		
16.1487419592283	-0.00524291992187501	14.6999999628861	148	0.00020852308080066		
16.2487419589759	-0.0052459716796875	14.7999999626336	149	-0.000188175239600241	dWE(1).Potential/dt < 1E-06 V/s	
16.3487419587234	-0.00523986816406249	14.8999999623811	150	0.000188187652383931		
16.4487419584709	-0.00522766113281251	14.9999999621286	151	0.000142406948725693		
16.5487419582184	-0.0052215576171875	15.0999999618762	152	-1.01669356808998E-05	dWE(1).Potential/dt < 1E-06 V/s	
16.648741957966	-0.0052154541015625	15.1999999616237	153	8.13836013549007E-05		
16.7487419577135	-0.005206298828125	15.2999999613712	154	0.000116975643322803		
16.848741957461	-0.005206298828125	15.3999999611187	155	-8.64670728333294E-05	dWE(1).Potential/dt < 1E-06 V/s	
16.9487419572085	-0.00519714355468751	15.4999999608663	156	0.000198362351511605		
17.0487419569561	-0.00519714355468751	15.5999999606138	157	-0.000106807150586974	dWE(1).Potential/dt < 1E-06 V/s	
17.1487419567036	-0.00519714355468751	15.6999999603613	158	3.05194334941916E-05		
17.2487419564511	-0.00519714355468751	15.7999999601088	159	1.55220392095146E-09	dWE(1).Potential/dt < 1E-06 V/s	
17.3487419561986	-0.00519409179687499	15.8999999598564	160	5.59553991479333E-05		
17.4487419559462	-0.00519714355468751	15.9999999596039	161	-9.15660639293492E-05	dWE(1).Potential/dt < 1E-06 V/s	
17.5487419556937	-0.00519409179687499	16.0999999593514	162	0.000101739206002094		
17.6487419554412	-0.00519409179687499	16.1999999590989	163	-4.57853602711111E-05	dWE(1).Potential/dt < 1E-06 V/s	
17.7487419551887	-0.0052001953125	16.2999999588465	164	-0.000101723686384503	dWE(1).Potential/dt < 1E-06 V/s	
17.8487419549363	-0.00519714355468751	16.399999958594	165	0.00012715499906335		
17.9487419546838	-0.0051910400390625	16.4999999583415	166	5.59522959520109E-05		
18.0487419544313	-0.0051910400390625	16.599999958089	167	-6.10419738222845E-05	dWE(1).Potential/dt < 1E-06 V/s	
18.1487419541788	-0.00518188476562501	16.6999999578366	168	0.000188190751941875		
18.2487419539264	-0.00518188476562501	16.7999999575841	169	-0.000106807150586974	dWE(1).Potential/dt < 1E-06 V/s	
18.3487419536739	-0.00517578125	16.8999999573316	170	0.00014241470489651		
18.4487419534214	-0.0051727294921875	16.9999999570791	171	-1.52597167470958E-05	dWE(1).Potential/dt < 1E-06 V/s	
18.5487419531689	-0.00516357421874999	17.0999999568267	172	0.000152589404024184		
18.6487419529165	-0.0051605224609375	17.1999999565742	173	-4.07018924306612E-05	dWE(1).Potential/dt < 1E-06 V/s	
18.748741952664	-0.005157470703125	17.2999999563217	174	5.0868828111561E-05		
18.8487419524115	-0.00515136718750001	17.3999999560692	175	8.64624162204564E-05		
18.948741952159	-0.00513610839843751	17.4999999558167	176	0.000218714849324897		
19.0487419519065	-0.0051300048828125	17.5999999555643	177	-4.57775968243368E-05	dWE(1).Potential/dt < 1E-06 V/s	
19.1487419516541	-0.00511779785156249	17.6999999553118	178	0.000203452029381879		
19.2487419514016	-0.005108642578125	17.7999999550593	179	4.57729402114637E-05		
19.3487419511491	-0.0050994873046875	17.8999999548068	180	0.000101722129329573		
19.4487419508966	-0.00508728027343749	17.9999999545544	181	0.000147507496876642		
19.5487419506442	-0.00507507324218751	18.0999999543019	182	0.000111885965452529		
19.6487419503917	-0.0050628662109375	18.1999999540494	183	0.000122087047202513		
19.7487419501392	-0.00505676269531249	18.2999999537969	184	1.01684881883557E-05		
19.8487419498867	-0.00504455566406251	18.3999999535445	185	0.000193269574083388		
19.9487419496343	-0.0050323486328125	18.499999953292	186	0.000101740755781066		
20.0487419493818	-0.005023193359375	18.5999999530395	187	6.61099184071645E-05		
20.1487419491293	-0.00501403808593751	18.699999952787	188	0.000101726785942446		
20.2487419488768	-0.0050048828125	18.7999999525346	189	9.15583004825749E-05		
20.3487419486244	-0.0050018310546875	18.8999999522821	190	-2.03431845875457E-05	dWE(1).Potential/dt < 1E-06 V/s	
20.4487419483719	-0.00499572753906249	18.9999999520296	191	0.000106811807199847		
20.5487419481194	-0.00498352050781251	19.0999999517771	192	0.000162751690368168		
20.6487419478669	-0.0049774169921875	19.1999999515247	193	-1.01669356808998E-05	dWE(1).Potential/dt < 1E-06 V/s	
20.7487419476145	-0.0049713134765625	19.2999999512722	194	8.13836013549007E-05		
20.848741947362	-0.0049591064453125	19.3999999510197	195	0.000172929489053786		
20.9487419471095	-0.0049560546875	19.4999999507672	196	-6.61145750200376E-05	dWE(1).Potential/dt < 1E-06 V/s	
21.048741946857	-0.00494995117187499	19.5999999505148	197	0.00011698339949362		
21.1487419466046	-0.0049407958984375	19.6999999502623	198	0.000106810257420875		
21.2487419463521	-0.00493469238281249	19.7999999500098	199	2.54344140557805E-05		
21.3487419460996	-0.0049285888671875	19.8999999497573	200	7.12011460564099E-05		
21.4487419458471	-0.00491943359374999	19.9999999495049	201	0.000116989605885465		
21.5487419455947	-0.0049163818359375	20.0999999492524	202	-3.05303001368884E-05	dWE(1).Potential/dt < 1E-06 V/s	
21.6487419453422	-0.00490417480468749	20.1999999489999	203	0.000218717948882841		
21.7487419450897	-0.00490417480468749	20.2999999487474	204	-0.000132249318994582	dWE(1).Potential/dt < 1E-06 V/s	
21.8487419448372	-0.004901123046875	20.399999948495	205	9.6630901680328E-05		
21.9487419445848	-0.00489196777343751	20.4999999482425	206	0.000132246219436638		
22.0487419443323	-0.0048828125	20.59999994799	207	7.12135661160573E-05		
22.1487419440798	-0.0048797607421875	20.6999999477375	208	-2.03431845875457E-05	dWE(1).Potential/dt < 1E-06 V/s	
22.2487419438273	-0.00487060546875	20.799999947485	209	0.000162753232871182		
22.3487419435749	-0.004864501953125	20.8999999472326	210	1.52674783748807E-05		
22.4487419433224	-0.004852294921875	20.9999999469801	211	0.000183101074071601		
22.5487419430699	-0.00484619140625001	21.0999999467276	212	-1.01731448012288E-05	dWE(1).Potential/dt < 1E-06 V/s	
22.6487419428174	-0.0048370361328125	21.1999999464751	213	0.000137335897306912		
22.7487419425649	-0.00483093261718751	21.2999999462227	214	2.54251008300344E-05		
22.8487419423125	-0.00482177734375	21.3999999459702	215	0.000127164312289096		
22.94874194206	-0.0048187255859375	21.4999999457177	216	-3.05163284792798E-05	dWE(1).Potential/dt < 1E-06 V/s	
23.0487419418075	-0.0048065185546875	21.5999999454652	217	0.000218707078602165		
23.148741941555	-0.0047943115234375	21.6999999452128	218	9.15489872568287E-05		
23.2487419413026	-0.0047943115234375	21.7999999449603	219	-0.000101728342997376	dWE(1).Potential/dt < 1E-06 V/s	
23.3487419410501	-0.00478515625000001	21.8999999447078	220	0.00020853549358435		
23.4487419407976	-0.0047760009765625	21.9999999444553	221	6.10419738222845E-05		
23.5487419405451	-0.00476684570312499	22.0999999442029	222	9.155209409073E-05		
23.6487419402927	-0.0047637939453125	22.1999999439504	223	-2.03571544261649E-05	dWE(1).Potential/dt < 1E-06 V/s	
23.7487419400402	-0.0047576904296875	22.2999999436979	224	0.000106822670204565		
23.8487419397877	-0.00475158691406249	22.3999999434454	225	5.08610646647867E-05		
23.9487419395352	-0.0047454833984375	22.499999943193	226	6.10295537626371E-05		
24.0487419392828	-0.00473632812499999	22.5999999429405	227	0.000116989605885465		
24.1487419390303	-0.004730224609375	22.699999942688	228	2.54235474130837E-05		
24.2487419387778	-0.00472412109375001	22.7999999424355	229	7.12089095031843E-05		
24.3487419385253	-0.0047119140625	22.8999999421831	230	0.000172945001395419		
24.4487419382729	-0.00470886230468751	22.9999999419306	231	-6.61300946376286E-05	dWE(1).Potential/dt < 1E-06 V/s	
24.5487419380204	-0.00470886230468751	23.0999999416781	232	5.09278106619604E-06		
24.6487419377679	-0.00470886230468751	23.1999999414256	233	1.01731448012288E-05		
24.7487419375154	-0.0047149658203125	23.2999999411732	234	-0.000111893721623346	dWE(1).Potential/dt < 1E-06 V/s	
24.848741937263	-0.00472412109375001	23.3999999409207	235	-9.66448715189472E-05	dWE(1).Potential/dt < 1E-06 V/s	
24.9487419370105	-0.00473937988281251	23.4999999406682	236	-0.000193272673641331	dWE(1).Potential/dt < 1E-06 V/s	
25.048741936758	-0.00474853515625	23.5999999404157	237	-2.03462896024575E-05	dWE(1).Potential/dt < 1E-06 V/s	
25.1487419365055	-0.0047607421875	23.6999999401633	238	-0.000167847567354329	dWE(1).Potential/dt < 1E-06 V/s	
25.2487419362531	-0.00476989746093751	23.7999999399108	239	-5.59522959520109E-05	dWE(1).Potential/dt < 1E-06 V/s	
25.3487419360006	-0.0047637939453125	23.8999999396583	240	0.000178022266482003		
25.4487419357481	-0.00476989746093751	23.9999999394058	241	-0.000213626713957638	dWE(1).Potential/dt < 1E-06 V/s	
25.5487419354956	-0.0047760009765625	24.0999999391533	242	-2.03385279746726E-05	dWE(1).Potential/dt < 1E-06 V/s	
25.6487419352432	-0.0047760009765625	24.1999999389009	243	5.08595148858149E-05		
25.7487419349907	-0.00476684570312499	24.2999999386484	244	0.000147504382766783		
25.8487419347382	-0.0047637939453125	24.3999999383959	245	-5.08750345034059E-05	dWE(1).Potential/dt < 1E-06 V/s	
25.9487419344857	-0.00475158691406249	24.4999999381434	246	0.000218717948882841		
26.0487419342332	-0.00475158691406249	24.599999937891	247	-0.000132249318994582	dWE(1).Potential/dt < 1E-06 V/s	
26.1487419339808	-0.00473632812499999	24.6999999376385	248	0.000320433871820569		
26.2487419337283	-0.004730224609375	24.799999937386	249	-6.61254380247556E-05	dWE(1).Potential/dt < 1E-06 V/s	
26.3487419334758	-0.0047637939453125	24.8999999371335	250	-0.000635784293990582	dWE(1).Potential/dt < 1E-06 V/s	
26.4487419332233	-0.0047027587890625	24.9999999368811	251	0.00153096206486225		
26.5487419329709	-0.0046844482421875	25.0999999366286	252	-0.000488279882119969	dWE(1).Potential/dt < 1E-06 V/s	
26.6487419327184	-0.004681396484375	25.1999999363761	253	4.57807036582381E-05		
26.7487419324659	-0.0046661376953125	25.2999999361236	254	0.000305178808048368		
26.8487419322134	-0.00466003417968749	25.3999999358712	255	-5.59476393391378E-05	dWE(1).Potential/dt < 1E-06 V/s	
26.948741931961	-0.00464477539062499	25.4999999356187	256	0.000259395019384101		
27.0487419317085	-0.0046356201171875	25.5999999353662	257	1.01731448012288E-05		
27.148741931456	-0.00462646484375	25.6999999351137	258	0.000111893721623346		
27.2487419312035	-0.00461425781249999	25.7999999348613	259	0.000147507496876642		
27.3487419309511	-0.004608154296875	25.8999999346088	260	-9.31322396979795E-09	dWE(1).Potential/dt < 1E-06 V/s	
27.4487419306986	-0.004595947265625	25.9999999343563	261	0.000193277330254205		
27.5487419304461	-0.00458374023437499	26.0999999341038	262	0.000101729892776348		
27.6487419301936	-0.00457763671875	26.1999999338514	263	1.01638315754826E-05		
27.7487419299412	-0.0045654296875	26.2999999335989	264	0.000193277330254205		
27.8487419296887	-0.00455627441406251	26.3999999333464	265	4.5776047045365E-05		
27.9487419294362	-0.0045440673828125	26.4999999330939	266	0.00015768529556226		
28.0487419291837	-0.0045318603515625	26.5999999328415	267	0.000111892171844374		
28.1487419289313	-0.00452880859375	26.699999932589	268	-4.57698370155413E-05	dWE(1).Potential/dt < 1E-06 V/s	
28.2487419286788	-0.00452270507812499	26.7999999323365	269	0.00011698339949362		
28.3487419284263	-0.0045135498046875	26.899999932084	270	0.000106810257420875		
28.4487419281738	-0.00450744628906249	26.9999999318316	271	2.54344140557805E-05		
28.5487419279214	-0.0045013427734375	27.0999999315791	272	7.12011460564099E-05		
28.6487419276689	-0.0044891357421875	27.1999999313266	273	0.000172931046108715		
28.7487419274164	-0.0044830322265625	27.2999999310741	274	-1.01653831734438E-05	dWE(1).Potential/dt < 1E-06 V/s	
28.8487419271639	-0.00447692871093749	27.3999999308217	275	8.13789447420277E-05		
28.9487419269115	-0.0044677734375	27.4999999305692	276	0.00011698339949362		
29.048741926659	-0.00446472167968751	27.5999999303167	277	-3.05194334941916E-05	dWE(1).Potential/dt < 1E-06 V/s	
29.1487419264065	-0.0044586181640625	27.6999999300642	278	0.000106814914033748		
29.248741926154	-0.00445556640625	27.7999999298117	279	-5.08812445332296E-06	dWE(1).Potential/dt < 1E-06 V/s	
29.3487419259015	-0.00444946289062501	27.8999999295593	280	9.6635558293201E-05		
29.4487419256491	-0.004437255859375	27.9999999293068	281	0.000162773416377604		
29.5487419253966	-0.0044281005859375	28.0999999290543	282	4.57651804026682E-05		
29.6487419251441	-0.004425048828125	28.1999999288018	283	-1.01684881883557E-05	dWE(1).Potential/dt < 1E-06 V/s	
29.7487419248916	-0.00441894531250001	28.2999999285494	284	0.000106807150586974		
29.8487419246392	-0.004412841796875	28.3999999282969	285	5.08657212776598E-05		
29.9487419243867	-0.00440673828125	28.4999999280444	286	6.10388669883832E-05		
30.0487419241342	-0.00440368652343751	28.5999999277919	287	5.08036328028538E-06		
30.1487419238817	-0.00440063476562499	28.6999999275395	288	4.07018924306612E-05		
30.2487419236293	-0.00438842773437501	28.799999927287	289	0.000198349924176		
30.3487419233768	-0.0043914794921875	28.8999999270345	290	-0.000188175239600241	dWE(1).Potential/dt < 1E-06 V/s	
30.4487419231243	-0.00438842773437501	28.999999926782	291	0.000132233806652948		
30.5487419228718	-0.0043792724609375	29.0999999265296	292	0.000122079291031696		
30.6487419226194	-0.004376220703125	29.1999999262771	293	-4.06894723710138E-05	dWE(1).Potential/dt < 1E-06 V/s	
30.7487419223669	-0.00437011718749999	29.2999999260246	294	0.000106811807199847		
30.8487419221144	-0.0043670654296875	29.3999999257721	295	-5.09743767906912E-06	dWE(1).Potential/dt < 1E-06 V/s	
30.9487419218619	-0.0043609619140625	29.4999999255197	296	9.66495281318203E-05		
31.0487419216095	-0.00435485839843749	29.5999999252672	297	5.08610646647867E-05		
31.148741921357	-0.004351806640625	29.6999999250147	298	5.07570666741231E-06		
31.2487419211045	-0.004351806640625	29.7999999247622	299	-1.52581642396399E-05	dWE(1).Potential/dt < 1E-06 V/s	
31.348741920852	-0.00434265136718751	29.8999999245098	300	0.00017801760986913		
31.4487419205996	-0.00433349609375	29.9999999242573	301	6.10419738222845E-05		
31.5487419203471	-0.00433349609375	30.0999999240048	302	-7.62970303185284E-05	dWE(1).Potential/dt < 1E-06 V/s	
31.6487419200946	-0.00432739257812501	30.1999999237523	303	0.000142413162393495		
31.7487419198421	-0.00432434082031249	30.2999999234999	304	-1.52488510138937E-05	dWE(1).Potential/dt < 1E-06 V/s	
31.8487419195897	-0.0043212890625	30.3999999232474	305	4.06739527534228E-05		
31.9487419193372	-0.0043182373046875	30.4999999229949	306	3.05240901070647E-05		
32.0487419190847	-0.004315185546875	30.5999999227424	307	3.05209869111422E-05		
32.1487419188322	-0.0043060302734375	30.69999992249	308	0.000142408505780622		
32.2487419185798	-0.004302978515625	30.7999999222375	309	-4.06863691750914E-05	dWE(1).Potential/dt < 1E-06 V/s	
32.3487419183273	-0.00429687500000001	30.899999921985	310	0.000106807150586974		
32.4487419180748	-0.00429687500000001	30.9999999217325	311	-6.10295537626371E-05	dWE(1).Potential/dt < 1E-06 V/s	
32.5487419178223	-0.004290771484375	31.09999992148	312	0.000132241562823765		
32.6487419175699	-0.0042877197265625	31.1999999212276	313	-1.52597167470958E-05	dWE(1).Potential/dt < 1E-06 V/s	
32.7487419173174	-0.00428161621093751	31.2999999209751	314	9.6635558293201E-05		
32.8487419170649	-0.00427856445312499	31.3999999207226	315	-5.07570666741231E-06	dWE(1).Potential/dt < 1E-06 V/s	
32.9487419168124	-0.0042724609375	31.4999999204701	316	9.66278021223843E-05		
33.0487419165599	-0.0042694091796875	31.5999999202177	317	-5.07725917486823E-06	dWE(1).Potential/dt < 1E-06 V/s	
33.1487419163075	-0.00426635742187501	31.6999999199652	318	4.06848157581408E-05		
33.248741916055	-0.00426330566406249	31.7999999197127	319	3.05287467199378E-05		
33.3487419158025	-0.00426025390625	31.8999999194602	320	3.05008070426993E-05		
33.44874191555	-0.00424804687499999	31.9999999192078	321	0.000198373207240365		
33.5487419152976	-0.0042449951171875	32.0999999189553	322	-7.63078933232464E-05	dWE(1).Potential/dt < 1E-06 V/s	
33.6487419150451	-0.004241943359375	32.1999999187028	323	6.10419738222845E-05		
33.7487419147926	-0.00423278808593749	32.2999999184503	324	0.000142416261951439		
33.8487419145401	-0.004229736328125	32.3999999181979	325	-4.07018924306612E-05	dWE(1).Potential/dt < 1E-06 V/s	
33.9487419142877	-0.0042236328125	32.4999999179454	326	0.000106822670204565		
34.0487419140352	-0.00422058105468751	32.5999999176929	327	-5.09278106619604E-06	dWE(1).Potential/dt < 1E-06 V/s	
34.1487419137827	-0.0042144775390625	32.6999999174404	328	9.66433217399754E-05		
34.2487419135302	-0.00421142578125	32.799999917188	329	-5.08812445332296E-06	dWE(1).Potential/dt < 1E-06 V/s	
34.3487419132778	-0.0042083740234375	32.8999999169355	330	4.06941289838869E-05		
34.4487419130253	-0.00420532226562501	32.999999916683	331	3.05132252833573E-05		
34.5487419127728	-0.00420227050781249	33.0999999164305	332	3.05287467199378E-05		
34.6487419125203	-0.00419921875	33.1999999161781	333	3.05008070426993E-05		
34.7487419122679	-0.0041961669921875	33.2999999159256	334	3.05240901070647E-05		
34.8487419120154	-0.0041961669921875	33.3999999156731	335	-2.54328606388299E-05	dWE(1).Potential/dt < 1E-06 V/s	
34.9487419117629	-0.004193115234375	33.4999999154206	336	6.61269878037274E-05		
35.0487419115104	-0.00418701171874999	33.5999999151682	337	7.62939307605848E-05		
35.148741911258	-0.00419006347656251	33.6999999149157	338	-0.000116992712719366	dWE(1).Potential/dt < 1E-06 V/s	
35.2487419110055	-0.004193115234375	33.7999999146632	339	1.55220387654253E-08	dWE(1).Potential/dt < 1E-06 V/s	
35.348741910753	-0.0041961669921875	33.8999999144107	340	-3.05240901070647E-05	dWE(1).Potential/dt < 1E-06 V/s	
35.4487419105005	-0.00419921875	33.9999999141583	341	-3.05209869111422E-05	dWE(1).Potential/dt < 1E-06 V/s	
35.5487419102481	-0.0041961669921875	34.0999999139058	342	8.13820515759289E-05		
35.6487419099956	-0.00419006347656251	34.1999999136533	343	6.61176818539388E-05		
35.7487419097431	-0.004180908203125	34.2999999134008	344	0.000106819570646621		
35.8487419094906	-0.0041778564453125	34.3999999131483	345	-3.05163284792798E-05	dWE(1).Potential/dt < 1E-06 V/s	
35.9487419092382	-0.00417480468750001	34.4999999128959	346	5.08579614688642E-05		
36.0487419089857	-0.00417480468750001	34.5999999126434	347	-2.54251008300344E-05	dWE(1).Potential/dt < 1E-06 V/s	
36.1487419087332	-0.004168701171875	34.6999999123909	348	0.00012206842075102		
36.2487419084807	-0.004168701171875	34.7999999121384	349	-7.12135661160573E-05	dWE(1).Potential/dt < 1E-06 V/s	
36.3487419082282	-0.004168701171875	34.899999911886	350	2.03416329895845E-05		
36.4487419079758	-0.0041656494140625	34.9999999116335	351	5.59507425350603E-05		
36.5487419077233	-0.00415954589843751	35.099999911381	352	7.62908239266835E-05		
36.6487419074708	-0.00416259765625	35.1999999111285	353	-0.00011697098670993	dWE(1).Potential/dt < 1E-06 V/s	
36.7487419072183	-0.00415649414062499	35.2999999108761	354	0.000167842910741456		
36.8487419069659	-0.0041534423828125	35.3999999106236	355	-2.5442173864576E-05	dWE(1).Potential/dt < 1E-06 V/s	
36.9487419067134	-0.004150390625	35.4999999103711	356	4.06956824008375E-05		
37.0487419064609	-0.0041473388671875	35.5999999101186	357	3.05209869111422E-05		
37.1487419062084	-0.00414123535156249	35.6999999098662	358	8.64670728333294E-05		
37.248741905956	-0.00413818359375	35.7999999096137	359	-5.09743767906912E-06	dWE(1).Potential/dt < 1E-06 V/s	
37.3487419057035	-0.0041351318359375	35.8999999093612	360	4.06956824008375E-05		
37.448741905451	-0.0041351318359375	35.9999999091087	361	-2.54328606388299E-05	dWE(1).Potential/dt < 1E-06 V/s	
37.5487419051985	-0.004132080078125	36.0999999088563	362	6.61269878037274E-05		
37.6487419049461	-0.00412597656249999	36.1999999086038	363	7.62939307605848E-05		
37.7487419046936	-0.0041229248046875	36.2999999083513	364	-5.09743767906912E-06	dWE(1).Potential/dt < 1E-06 V/s	
37.8487419044411	-0.004119873046875	36.3999999080988	365	4.06956824008375E-05		
37.9487419041886	-0.00411376953125001	36.4999999078464	366	8.64624162204564E-05		
38.0487419039362	-0.00411071777343749	36.5999999075939	367	-5.07570666741231E-06	dWE(1).Potential/dt < 1E-06 V/s	
38.1487419036837	-0.0041046142578125	36.6999999073414	368	9.66278021223843E-05		
38.2487419034312	-0.0041015625	36.7999999070889	369	-5.07725917486823E-06	dWE(1).Potential/dt < 1E-06 V/s	
38.3487419031787	-0.00409851074218751	36.8999999068365	370	4.06848157581408E-05		
38.4487419029263	-0.0040924072265625	36.999999906584	371	8.64701723912731E-05		
38.5487419026738	-0.00408935546875	37.0999999063315	372	-5.08812445332296E-06	dWE(1).Potential/dt < 1E-06 V/s	
38.6487419024213	-0.00408020019531249	37.199999906079	373	0.000152589404024184		
38.7487419021688	-0.00408020019531249	37.2999999058266	374	-9.66433217399754E-05	dWE(1).Potential/dt < 1E-06 V/s	
38.8487419019164	-0.004071044921875	37.3999999055741	375	0.000198365451069549		
38.9487419016639	-0.00406494140624999	37.4999999053216	376	5.08967650603154E-06		
39.0487419014114	-0.0040618896484375	37.5999999050691	377	1.52472994159325E-05		
39.1487419011589	-0.0040557861328125	37.6999999048167	378	9.66495281318203E-05		
39.2487419009065	-0.004046630859375	37.7999999045642	379	0.000106802493974101		
39.348741900654	-0.004046630859375	37.8999999043117	380	-8.64670728333294E-05	dWE(1).Potential/dt < 1E-06 V/s	
39.4487419004015	-0.00403747558593751	37.9999999040592	381	0.000198362351511605		
39.548741900149	-0.0040313720703125	38.0999999038067	382	5.08812445332296E-06		
39.6487418998965	-0.0040252685546875	38.1999999035543	383	7.12120090611279E-05		
39.7487418996441	-0.00401916503906249	38.2999999033018	384	6.10342103755102E-05		
39.8487418993916	-0.0040130615234375	38.3999999030493	385	6.10295537626371E-05		
39.9487418991391	-0.00400695800781251	38.4999999027968	386	6.1035760154482E-05		
40.0487418988866	-0.0039947509765625	38.5999999025444	387	0.000172945001395419		
40.1487418986342	-0.00399169921875001	38.6999999022919	388	-6.61300946376286E-05	dWE(1).Potential/dt < 1E-06 V/s	
40.2487418983817	-0.0039825439453125	38.7999999020394	389	0.000172941901837476		
40.3487418981292	-0.0039794921875	38.8999999017869	390	-4.06894723710138E-05	dWE(1).Potential/dt < 1E-06 V/s	
40.4487418978767	-0.0039642333984375	38.9999999015345	391	0.000274660938885063		
40.5487418976243	-0.00396118164062501	39.099999901282	392	-0.000111901485070121	dWE(1).Potential/dt < 1E-06 V/s	
40.6487418973718	-0.00395812988281249	39.1999999010295	393	7.12182227289304E-05		
40.7487418971193	-0.003948974609375	39.299999900777	394	0.000142408505780622		
40.8487418968668	-0.0039398193359375	39.3999999005246	395	7.12042528903112E-05		
40.9487418966144	-0.003936767578125	39.4999999002721	396	-2.03416329895845E-05	dWE(1).Potential/dt < 1E-06 V/s	
41.0487418963619	-0.00393066406250001	39.5999999000196	397	0.000106807150586974		
41.1487418961094	-0.003924560546875	39.6999998997671	398	5.08657212776598E-05		
41.2487418958569	-0.00391235351562499	39.7999998995147	399	0.000172934145666659		
41.3487418956045	-0.00390625	39.8999998992622	400	-1.0180905519519E-05	dWE(1).Potential/dt < 1E-06 V/s	
41.448741895352	-0.00390014648437501	39.9999998990097	401	8.13820515759289E-05		
41.5487418950995	-0.0038909912109375	40.0999998987572	402	0.000116991162940394		
41.648741894847	-0.00388488769531251	40.1999998985048	403	2.54251008300344E-05		
41.7487418945946	-0.003875732421875	40.2999998982523	404	0.000127164312289096		
41.8487418943421	-0.003863525390625	40.3999998979998	405	0.000137326584081165		
41.9487418940896	-0.00386657714843749	40.4999998977473	406	-0.000167841368238442	dWE(1).Potential/dt < 1E-06 V/s	
42.0487418938371	-0.0038604736328125	40.5999998974949	407	0.000188182995771058		
42.1487418935847	-0.003857421875	40.6999998972424	408	-2.54289807344321E-05	dWE(1).Potential/dt < 1E-06 V/s	
42.2487418933322	-0.00385131835937499	40.7999998969899	409	9.66386651271023E-05		
42.3487418930797	-0.0038421630859375	40.8999998967374	410	0.00010680405102903		
42.4487418928272	-0.00383605957031249	40.999999896485	411	2.54351889452664E-05		
42.5487418925748	-0.003826904296875	41.0999998962325	412	0.000127148785395548		
42.6487418923223	-0.0038177490234375	41.19999989598	413	8.13828301033936E-05		
42.7487418920698	-0.00380859375000001	41.2999998957275	414	9.15536438697018E-05		
42.8487418918173	-0.00379638671875	41.399999895475	415	0.00014750671107322		
42.9487418915649	-0.00379333496093751	41.4999998952226	416	-5.59577274543699E-05	dWE(1).Potential/dt < 1E-06 V/s	
43.0487418913124	-0.0037841796875	41.5999998949701	417	0.000172941901837476		
43.1487418910599	-0.0037689208984375	41.6999998947176	418	0.000183101859875023		
43.2487418908074	-0.00375976562499999	41.7999998944651	419	2.03478412004188E-05		
43.3487418905549	-0.0037506103515625	41.8999998942127	420	0.000111889065010473		
43.4487418903025	-0.00374755859375001	41.9999998939602	421	-2.03462896024575E-05	dWE(1).Potential/dt < 1E-06 V/s	
43.54874189005	-0.0037384033203125	42.0999998937077	422	0.000162768759764731		
43.6487418897975	-0.0037353515625	42.1999998934552	423	-4.06949075113516E-05	dWE(1).Potential/dt < 1E-06 V/s	
43.748741889545	-0.0037261962890625	42.2999998932028	424	0.000162759446538985		
43.8487418892926	-0.00371704101562501	42.3999998929503	425	7.12089095031843E-05		
43.9487418890401	-0.00371398925781249	42.4999998926978	426	-2.03361996682361E-05	dWE(1).Potential/dt < 1E-06 V/s	
44.0487418887876	-0.0037078857421875	42.5999998924453	427	0.000106800165667664		
44.1487418885351	-0.003704833984375	42.6999998921929	428	-5.08346784044988E-06	dWE(1).Potential/dt < 1E-06 V/s	
44.2487418882827	-0.00369873046874999	42.7999998919404	429	9.66386651271023E-05		
44.3487418880302	-0.0036956787109375	42.8999998916879	430	-5.09122901348746E-06	dWE(1).Potential/dt < 1E-06 V/s	
44.4487418877777	-0.0036895751953125	42.9999998914354	431	9.66440929914825E-05		
44.5487418875252	-0.00368652343750001	43.099999891183	432	-5.09278106619604E-06	dWE(1).Potential/dt < 1E-06 V/s	
44.6487418872728	-0.00368347167968749	43.1999998909305	433	4.07011139031965E-05		
44.7487418870203	-0.003680419921875	43.299999890678	434	3.05077919620089E-05		
44.8487418867678	-0.0036773681640625	43.3999998904255	435	3.05240901070647E-05		
44.9487418865153	-0.003680419921875	43.4999998901731	436	-8.13805017969571E-05	dWE(1).Potential/dt < 1E-06 V/s	
45.0487418862629	-0.0036773681640625	43.5999998899206	437	0.000101727564469911		
45.1487418860104	-0.0036773681640625	43.6999998896681	438	-4.57775968243368E-05	dWE(1).Potential/dt < 1E-06 V/s	
45.2487418857579	-0.0036651611328125	43.7999998894156	439	0.000233969127293676		
45.3487418855054	-0.0036590576171875	43.8999998891632	440	-3.05163284792798E-05	dWE(1).Potential/dt < 1E-06 V/s	
45.448741885253	-0.0036590576171875	43.9999998889107	441	-3.05225366901141E-05	dWE(1).Potential/dt < 1E-06 V/s	
45.5487418850005	-0.00365295410156249	44.0999998886582	442	0.000132243891130202		
45.648741884748	-0.00364990234375	44.1999998884057	443	-1.52635966514936E-05	dWE(1).Potential/dt < 1E-06 V/s	
45.7487418844955	-0.00364074707031251	44.2999998881533	444	0.00015259173233062		
45.8487418842431	-0.00362548828125001	44.3999998879008	445	0.000183108844794333		
45.9487418839906	-0.00362243652343749	44.4999998876483	446	-9.15466589503922E-05	dWE(1).Potential/dt < 1E-06 V/s	
46.0487418837381	-0.00361328125	44.5999998873958	447	0.000183093317900784		
46.1487418834856	-0.00361022949218751	44.6999998871433	448	-4.06910257879645E-05	dWE(1).Potential/dt < 1E-06 V/s	
46.2487418832332	-0.0036041259765625	44.7999998868909	449	0.000106821120425593		
46.3487418829807	-0.00359497070312501	44.8999998866384	450	0.000106807929114439		
46.4487418827282	-0.00359191894531249	44.9999998863859	451	-3.05085686704842E-05	dWE(1).Potential/dt < 1E-06 V/s	
46.5487418824757	-0.003582763671875	45.0999998861334	452	0.000162747805006802		
46.6487418822232	-0.00357971191406251	45.199999885881	453	-4.06910257879645E-05	dWE(1).Potential/dt < 1E-06 V/s	
46.7487418819708	-0.00357666015624999	45.2999998856285	454	5.08734847244341E-05		
46.8487418817183	-0.0035675048828125	45.399999885376	455	0.000142403063364327		
46.9487418814658	-0.00356445312500001	45.4999998851235	456	-4.06910257879645E-05	dWE(1).Potential/dt < 1E-06 V/s	
47.0487418812133	-0.00356445312500001	45.5999998848711	457	-5.08036328028538E-06	dWE(1).Potential/dt < 1E-06 V/s	
47.1487418809609	-0.00356140136718749	45.6999998846186	458	6.61277663311921E-05		
47.2487418807084	-0.003558349609375	45.7999998843661	459	2.03354229597608E-05		
47.3487418804559	-0.0035552978515625	45.8999998841136	460	3.05240901070647E-05		
47.4487418802034	-0.00354919433593751	45.9999998838612	461	8.64624162204564E-05		
47.548741879951	-0.00355224609375	46.0999998836087	462	-0.00011697797162924	dWE(1).Potential/dt < 1E-06 V/s	
47.6487418796985	-0.00354614257812499	46.1999998833562	463	0.000167842910741456		
47.748741879446	-0.00354919433593751	46.2999998831037	464	-0.000137337454361841	dWE(1).Potential/dt < 1E-06 V/s	
47.8487418791935	-0.0035430908203125	46.3999998828513	465	0.000167859208886512		
47.9487418789411	-0.00354614257812499	46.4999998825988	466	-0.000137328141136095	dWE(1).Potential/dt < 1E-06 V/s	
48.0487418786886	-0.0035430908203125	46.5999998823463	467	0.000111890622065403		
48.1487418784361	-0.0035400390625	46.6999998820938	468	1.01785772130825E-05		
48.2487418781836	-0.0035400390625	46.7999998818414	469	-2.54328606388299E-05	dWE(1).Potential/dt < 1E-06 V/s	
48.3487418779312	-0.0035369873046875	46.8999998815889	470	6.61200101603754E-05		
48.4487418776787	-0.0035369873046875	46.9999998813364	471	-3.56075579475146E-05	dWE(1).Potential/dt < 1E-06 V/s	
48.5487418774262	-0.00353393554687501	47.0999998810839	472	6.61176818539388E-05		
48.6487418771737	-0.0035369873046875	47.1999998808315	473	-9.15451091714203E-05	dWE(1).Potential/dt < 1E-06 V/s	
48.7487418769213	-0.00353393554687501	47.299999880579	474	0.000101716701465193		
48.8487418766688	-0.00353088378906249	47.3999998803265	475	1.01840096249362E-05		
48.9487418764163	-0.00353393554687501	47.499999880074	476	-8.13936931081116E-05	dWE(1).Potential/dt < 1E-06 V/s	
49.0487418761638	-0.00353088378906249	47.5999998798216	477	0.000101739206002094		
49.1487418759114	-0.00352783203125	47.6999998795691	478	1.01622790680267E-05		
49.2487418756589	-0.00353393554687501	47.7999998793166	479	-0.000137325027026236	dWE(1).Potential/dt < 1E-06 V/s	
49.3487418754064	-0.00353088378906249	47.8999998790641	480	0.000137337454361841		
49.4487418751539	-0.00352783203125	47.9999998788116	481	-1.00893258192514E-08	dWE(1).Potential/dt < 1E-06 V/s	
49.5487418749015	-0.00353393554687501	48.0999998785592	482	-0.000137325027026236	dWE(1).Potential/dt < 1E-06 V/s	
49.648741874649	-0.00353393554687501	48.1999998783067	483	8.13836013549007E-05		
49.7487418743965	-0.00353088378906249	48.2999998780542	484	3.56098862539511E-05		
49.848741874144	-0.00352783203125	48.3999998778017	485	2.03354229597608E-05		
49.9487418738915	-0.00353393554687501	48.4999998775493	486	-0.000137325027026236	dWE(1).Potential/dt < 1E-06 V/s	
50.0487418736391	-0.00353088378906249	48.5999998772968	487	0.000137337454361841		
50.1487418733866	-0.0035369873046875	48.6999998770443	488	-0.000167859208886512	dWE(1).Potential/dt < 1E-06 V/s	
50.2487418731341	-0.00354614257812499	48.7999998767918	489	-8.64624162204564E-05	dWE(1).Potential/dt < 1E-06 V/s	
50.3487418728816	-0.00353393554687501	48.8999998765394	490	0.000310252973577008		
50.4487418726292	-0.0035247802734375	48.9999998762869	491	-5.07493086843169E-06	dWE(1).Potential/dt < 1E-06 V/s	
50.5487418723767	-0.00353393554687501	49.0999998760344	492	-0.000233974555158056	dWE(1).Potential/dt < 1E-06 V/s	
50.6487418721242	-0.00352783203125	49.1999998757819	493	0.00024923583259806		
50.7487418718717	-0.00353088378906249	49.2999998755295	494	-0.000157672868226655	dWE(1).Potential/dt < 1E-06 V/s	
50.8487418716193	-0.00352783203125	49.399999875277	495	0.000111890622065403		
50.9487418713668	-0.00353393554687501	49.4999998750245	496	-0.000157670539920218	dWE(1).Potential/dt < 1E-06 V/s	
51.0487418711143	-0.00353088378906249	49.599999874772	497	0.000137337454361841		
51.1487418708618	-0.0035369873046875	49.6999998745196	498	-0.000167859208886512	dWE(1).Potential/dt < 1E-06 V/s	
51.2487418706094	-0.0035430908203125	49.7999998742671	499	-3.05147768813185E-05	dWE(1).Potential/dt < 1E-06 V/s	
51.3487418703569	-0.0035430908203125	49.8999998740146	500	5.08672746946104E-05		
51.4487418701044	-0.00354614257812499	49.9999998737621	501	-7.62900453992188E-05	dWE(1).Potential/dt < 1E-06 V/s	
51.5487418698519	-0.00355224609375	50.0999998735097	502	-7.6304015237838E-05	dWE(1).Potential/dt < 1E-06 V/s	
51.6487418695995	-0.003558349609375	50.1999998732572	503	-5.08602897753008E-05	dWE(1).Potential/dt < 1E-06 V/s	
51.748741869347	-0.00356140136718749	50.2999998730047	504	-5.08036328028538E-06	dWE(1).Potential/dt < 1E-06 V/s	
51.8487418690945	-0.003570556640625	50.3999998727522	505	-0.000152596388943493	dWE(1).Potential/dt < 1E-06 V/s	
51.948741868842	-0.00357666015624999	50.4999998724998	506	-1.52527318277862E-05	dWE(1).Potential/dt < 1E-06 V/s	
52.0487418685896	-0.0035858154296875	50.5999998722473	507	-0.000127164312289096	dWE(1).Potential/dt < 1E-06 V/s	
52.1487418683371	-0.00360107421875	50.6999998719948	508	-0.000193274230696261	dWE(1).Potential/dt < 1E-06 V/s	
52.2487418680846	-0.0035980224609375	50.7999998717423	509	0.00020344891527202		
52.3487418678321	-0.0036041259765625	50.8999998714899	510	-0.000198365451069549	dWE(1).Potential/dt < 1E-06 V/s	
52.4487418675797	-0.00361328125	50.9999998712374	511	-8.64639659994282E-05	dWE(1).Potential/dt < 1E-06 V/s	
52.5487418673272	-0.003619384765625	51.0999998709849	512	-2.54336373473052E-05	dWE(1).Potential/dt < 1E-06 V/s	
52.6487418670747	-0.00362548828125001	51.1999998707324	513	-7.12065811967477E-05	dWE(1).Potential/dt < 1E-06 V/s	
52.7487418668222	-0.003631591796875	51.29999987048	514	-6.10287788731512E-05	dWE(1).Potential/dt < 1E-06 V/s	
52.8487418665698	-0.00364074707031251	51.3999998702275	515	-0.000116990384412929	dWE(1).Potential/dt < 1E-06 V/s	
52.9487418663173	-0.0036468505859375	51.499999869975	516	-2.54235474130837E-05	dWE(1).Potential/dt < 1E-06 V/s	
53.0487418660648	-0.00365600585937501	51.5999998697225	517	-0.000127162755234167	dWE(1).Potential/dt < 1E-06 V/s	
53.1487418658123	-0.00367126464843751	51.69999986947	518	-0.000193272673641331	dWE(1).Potential/dt < 1E-06 V/s	
53.2487418655599	-0.003680419921875	51.7999998692176	519	-2.03400795726338E-05	dWE(1).Potential/dt < 1E-06 V/s	
53.3487418653074	-0.00368347167968749	51.8999998689651	520	1.55220392095146E-09	dWE(1).Potential/dt < 1E-06 V/s	
53.4487418650549	-0.0036956787109375	51.9999998687126	521	-0.000218716391827911	dWE(1).Potential/dt < 1E-06 V/s	
53.5487418648024	-0.0037078857421875	52.0999998684601	522	-9.15466589503922E-05	dWE(1).Potential/dt < 1E-06 V/s	
53.6487418645499	-0.00372314453125	52.1999998682077	523	-0.000178020709427074	dWE(1).Potential/dt < 1E-06 V/s	
53.7487418642975	-0.0037384033203125	52.2999998679552	524	-0.000142415490699932	dWE(1).Potential/dt < 1E-06 V/s	
53.848741864045	-0.00376281738281251	52.3999998677027	525	-0.000320436985930428	dWE(1).Potential/dt < 1E-06 V/s	
53.9487418637925	-0.00377807617187501	52.4999998674502	526	-4.57713904324919E-05	dWE(1).Potential/dt < 1E-06 V/s	
54.04874186354	-0.00379028320312499	52.5999998671978	527	-0.000127150342450477	dWE(1).Potential/dt < 1E-06 V/s	
54.1487418632876	-0.00380859375000001	52.6999998669453	528	-0.000244153925450519	dWE(1).Potential/dt < 1E-06 V/s	
54.2487418630351	-0.003826904296875	52.7999998666928	529	-0.000162750133313239	dWE(1).Potential/dt < 1E-06 V/s	
54.3487418627826	-0.0038299560546875	52.8999998664403	530	9.66324587352574E-05		
54.4487418625301	-0.0038421630859375	52.9999998661879	531	-0.000249226519372314	dWE(1).Potential/dt < 1E-06 V/s	
54.5487418622777	-0.00385437011718751	53.0999998659354	532	-9.15575219551101E-05	dWE(1).Potential/dt < 1E-06 V/s	
54.6487418620252	-0.0038726806640625	53.1999998656829	533	-0.000233960599871352	dWE(1).Potential/dt < 1E-06 V/s	
54.7487418617727	-0.003887939453125	53.2999998654304	534	-0.000106818792119157	dWE(1).Potential/dt < 1E-06 V/s	
54.8487418615202	-0.00389709472656249	53.399999865178	535	-5.08610646647867E-05	dWE(1).Potential/dt < 1E-06 V/s	
54.9487418612678	-0.00391540527343751	53.4999998649255	536	-0.000279752945061773	dWE(1).Potential/dt < 1E-06 V/s	
55.0487418610153	-0.00393066406250001	53.599999864673	537	-9.66301304288208E-05	dWE(1).Potential/dt < 1E-06 V/s	
55.1487418607628	-0.003948974609375	53.6999998644205	538	-0.000218700879486278	dWE(1).Potential/dt < 1E-06 V/s	
55.2487418605103	-0.00396728515625	53.7999998641681	539	-0.000172938802279532	dWE(1).Potential/dt < 1E-06 V/s	
55.3487418602579	-0.003985595703125	53.8999998639156	540	-0.000183108844794333	dWE(1).Potential/dt < 1E-06 V/s	
55.4487418600054	-0.00400695800781251	53.9999998636631	541	-0.000239054919802584	dWE(1).Potential/dt < 1E-06 V/s	
55.5487418597529	-0.0040252685546875	54.0999998634106	542	-0.000147490412928164	dWE(1).Potential/dt < 1E-06 V/s	
55.6487418595004	-0.004046630859375	54.1999998631582	543	-0.000249237375101075	dWE(1).Potential/dt < 1E-06 V/s	
55.748741859248	-0.00406799316406251	54.2999998629057	544	-0.00020344891527202	dWE(1).Potential/dt < 1E-06 V/s	
55.8487418589955	-0.00408935546875	54.3999998626532	545	-0.000213617415283807	dWE(1).Potential/dt < 1E-06 V/s	
55.948741858743	-0.00411071777343749	54.4999998624007	546	-0.000213623614399694	dWE(1).Potential/dt < 1E-06 V/s	
56.0487418584905	-0.0041351318359375	54.5999998621483	547	-0.000269579002633691	dWE(1).Potential/dt < 1E-06 V/s	
56.1487418582381	-0.00415954589843751	54.6999998618958	548	-0.00023396679898724	dWE(1).Potential/dt < 1E-06 V/s	
56.2487418579856	-0.0041839599609375	54.7999998616433	549	-0.00024413839855697	dWE(1).Potential/dt < 1E-06 V/s	
56.3487418577331	-0.0042083740234375	54.8999998613908	550	-0.000244136841502041	dWE(1).Potential/dt < 1E-06 V/s	
56.4487418574806	-0.004229736328125	54.9999998611383	551	-0.000188200065167621	dWE(1).Potential/dt < 1E-06 V/s	
56.5487418572282	-0.004241943359375	55.0999998608859	552	-5.59445325052366E-05	dWE(1).Potential/dt < 1E-06 V/s	
56.6487418569757	-0.00426635742187501	55.1999998606334	553	-0.000376387732103467	dWE(1).Potential/dt < 1E-06 V/s	
56.7487418567232	-0.00428466796875	55.2999998603809	554	-9.15396740310825E-05	dWE(1).Potential/dt < 1E-06 V/s	
56.8487418564707	-0.0042999267578125	55.3999998601284	555	-0.000147502840263769	dWE(1).Potential/dt < 1E-06 V/s	
56.9487418562182	-0.004315185546875	55.499999859876	556	-0.000162756346981041	dWE(1).Potential/dt < 1E-06 V/s	
57.0487418559658	-0.0043365478515625	55.5999998596235	557	-0.000264492438873276	dWE(1).Potential/dt < 1E-06 V/s	
57.1487418557133	-0.00435791015625001	55.699999859371	558	-0.000193277330254205	dWE(1).Potential/dt < 1E-06 V/s	
57.2487418554608	-0.00438232421875	55.7999998591185	559	-0.000269571261014789	dWE(1).Potential/dt < 1E-06 V/s	
57.3487418552083	-0.0044097900390625	55.8999998588661	560	-0.000289917545160279	dWE(1).Potential/dt < 1E-06 V/s	
57.4487418549559	-0.00443115234374999	55.9999998586136	561	-0.00015258630446624	dWE(1).Potential/dt < 1E-06 V/s	
57.5487418547034	-0.0044586181640625	56.0999998583611	562	-0.000345877604559064	dWE(1).Potential/dt < 1E-06 V/s	
57.6487418544509	-0.004486083984375	56.1999998581086	563	-0.000254306884016842	dWE(1).Potential/dt < 1E-06 V/s	
57.7487418541984	-0.0045196533203125	56.2999998578562	564	-0.000386562402127311	dWE(1).Potential/dt < 1E-06 V/s	
57.848741853946	-0.0045440673828125	56.3999998576037	565	-0.000147493527038023	dWE(1).Potential/dt < 1E-06 V/s	
57.9487418536935	-0.00456848144531249	56.4999998573512	566	-0.000274659367278218	dWE(1).Potential/dt < 1E-06 V/s	
58.048741853441	-0.004595947265625	56.5999998570987	567	-0.000300100015010685	dWE(1).Potential/dt < 1E-06 V/s	
58.1487418531885	-0.00461730957031251	56.6999998568463	568	-0.000152584747411311	dWE(1).Potential/dt < 1E-06 V/s	
58.2487418529361	-0.004638671875	56.7999998565938	569	-0.000233962142374367	dWE(1).Potential/dt < 1E-06 V/s	
58.3487418526836	-0.00466003417968749	56.8999998563413	570	-0.000213623614399694	dWE(1).Potential/dt < 1E-06 V/s	
58.4487418524311	-0.0046844482421875	56.9999998560888	571	-0.000269579002633691	dWE(1).Potential/dt < 1E-06 V/s	
58.5487418521786	-0.00470581054687499	57.0999998558364	572	-0.000178012953256257	dWE(1).Potential/dt < 1E-06 V/s	
58.6487418519262	-0.00472412109375001	57.1999998555839	573	-0.000167856880580075	dWE(1).Potential/dt < 1E-06 V/s	
58.7487418516737	-0.004742431640625	57.2999998553314	574	-0.000193261803360656	dWE(1).Potential/dt < 1E-06 V/s	
58.8487418514212	-0.0047607421875	57.3999998550789	575	-0.000183111944352277	dWE(1).Potential/dt < 1E-06 V/s	
58.9487418511687	-0.00478210449218749	57.4999998548265	576	-0.000239050263189711	dWE(1).Potential/dt < 1E-06 V/s	
59.0487418509163	-0.00480041503906251	57.599999854574	577	-0.000147512153489515	dWE(1).Potential/dt < 1E-06 V/s	
59.1487418506638	-0.0048187255859375	57.6999998543215	578	-0.000193261803360656	dWE(1).Potential/dt < 1E-06 V/s	
59.2487418504113	-0.0048370361328125	57.799999854069	579	-0.000183111944352277	dWE(1).Potential/dt < 1E-06 V/s	
59.3487418501588	-0.004852294921875	57.8999998538166	580	-0.00012715499906335	dWE(1).Potential/dt < 1E-06 V/s	
59.4487418499064	-0.0048675537109375	57.9999998535641	581	-0.000162761003593914	dWE(1).Potential/dt < 1E-06 V/s	
59.5487418496539	-0.0048858642578125	58.0999998533116	582	-0.000208541707252152	dWE(1).Potential/dt < 1E-06 V/s	
59.6487418494014	-0.0048980712890625	58.1999998530591	583	-6.10326569585595E-05	dWE(1).Potential/dt < 1E-06 V/s	
59.7487418491489	-0.004913330078125	58.2999998528066	584	-0.000198365451069549	dWE(1).Potential/dt < 1E-06 V/s	
59.8487418488965	-0.0049285888671875	58.3999998525542	585	-0.00014241470489651	dWE(1).Potential/dt < 1E-06 V/s	
59.948741848644	-0.00494384765625	58.4999998523017	586	-0.00015258786152117	dWE(1).Potential/dt < 1E-06 V/s	
60.0487418483915	-0.004962158203125	58.5999998520492	587	-0.000208541707252152	dWE(1).Potential/dt < 1E-06 V/s	
60.148741848139	-0.00498352050781251	58.6999998517967	588	-0.000228881777729839	dWE(1).Potential/dt < 1E-06 V/s	
60.2487418478865	-0.00499877929687501	58.7999998515443	589	-9.15489872568287E-05	dWE(1).Potential/dt < 1E-06 V/s	
60.3487418476341	-0.00501098632812499	58.8999998512918	590	-0.000116977193101775	dWE(1).Potential/dt < 1E-06 V/s	
60.4487418473816	-0.005023193359375	58.9999998510393	591	-0.000132258632220328	dWE(1).Potential/dt < 1E-06 V/s	
60.5487418471291	-0.00504150390624999	59.0999998507868	592	-0.000233959042816423	dWE(1).Potential/dt < 1E-06 V/s	
60.6487418468766	-0.00505676269531249	59.1999998505344	593	-0.000106818013591692	dWE(1).Potential/dt < 1E-06 V/s	
60.7487418466242	-0.0050628662109375	59.2999998502819	594	5.08812445332296E-06		
60.8487418463717	-0.00507507324218751	59.3999998500294	595	-0.000203452029381879	dWE(1).Potential/dt < 1E-06 V/s	
60.9487418461192	-0.005078125	59.4999998497769	596	6.61347512505017E-05		
61.0487418458667	-0.005084228515625	59.5999998495245	597	-0.000116995819553267	dWE(1).Potential/dt < 1E-06 V/s	
61.1487418456143	-0.0050933837890625	59.699999849272	598	-0.000106802493974101	dWE(1).Potential/dt < 1E-06 V/s	
61.2487418453618	-0.00510559082031251	59.7999998490195	599	-0.000137335897306912	dWE(1).Potential/dt < 1E-06 V/s	
61.3487418451093	-0.00512084960937501	59.899999848767	600	-0.000167839811183512	dWE(1).Potential/dt < 1E-06 V/s	
