Time (s)	WE(1).Potential (V)	Corrected time (s)	Index	dWE(1).Potential/dt (V/s)	Cutoffs	OCP value (V)
1.42121499641178	0.045648193359375	0	1	0	dWE(1).Potential/dt < 1E-06 V/s	0.0418918385225184
1.5212149961593	0.0456268310546875	0.0999999997475243	2	-0.000213645602343604	dWE(1).Potential/dt < 1E-06 V/s	
1.62121499590683	0.0456146240234375	0.199999999495049	3	-7.63312709750608E-05	dWE(1).Potential/dt < 1E-06 V/s	
1.72121499565435	0.0456024169921875	0.299999999242573	4	-0.000152563196024857	dWE(1).Potential/dt < 1E-06 V/s	
1.82121499540187	0.04559326171875	0.399999998990097	5	-6.61488011246547E-05	dWE(1).Potential/dt < 1E-06 V/s	
1.9212149951494	0.0455841064453125	0.499999998737621	6	-0.000101750192698091	dWE(1).Potential/dt < 1E-06 V/s	
2.02121499489692	0.0455718994140625	0.599999998485146	7	-0.000147447135532275	dWE(1).Potential/dt < 1E-06 V/s	
2.12121499464445	0.045556640625	0.69999999823267	8	-0.000167836900800467	dWE(1).Potential/dt < 1E-06 V/s	
2.22121499439197	0.0455352783203125	0.799999997980194	9	-0.000254338228842244	dWE(1).Potential/dt < 1E-06 V/s	
2.3212149941395	0.0455169677734375	0.899999997727718	10	-0.000137264665681869	dWE(1).Potential/dt < 1E-06 V/s	
2.42121499388702	0.04549560546875	0.999999997475243	11	-0.000249222153797746	dWE(1).Potential/dt < 1E-06 V/s	
2.52121499363454	0.0454803466796875	1.09999999722277	12	-9.15304699447006E-05	dWE(1).Potential/dt < 1E-06 V/s	
2.62121499338207	0.045465087890625	1.19999999697029	13	-0.00017290331015829	dWE(1).Potential/dt < 1E-06 V/s	
2.72121499312959	0.0454437255859375	1.29999999671782	14	-0.00026452069869265	dWE(1).Potential/dt < 1E-06 V/s	
2.82121499287712	0.0454254150390625	1.39999999646534	15	-0.000137264665681869	dWE(1).Potential/dt < 1E-06 V/s	
2.92121499262464	0.0454071044921875	1.49999999621286	16	-0.000193293075426482	dWE(1).Potential/dt < 1E-06 V/s	
3.02121499237217	0.0453948974609375	1.59999999596039	17	-7.12648688931949E-05	dWE(1).Potential/dt < 1E-06 V/s	
3.12121499211969	0.045379638671875	1.69999999570791	18	-0.00019833464466501	dWE(1).Potential/dt < 1E-06 V/s	
3.22121499186721	0.0453582763671875	1.79999999545544	19	-0.000254276150371879	dWE(1).Potential/dt < 1E-06 V/s	
3.32121499161474	0.0453399658203125	1.89999999520296	20	-0.000137388837174512	dWE(1).Potential/dt < 1E-06 V/s	
3.42121499136226	0.045318603515625	1.99999999495049	21	-0.000249197328230366	dWE(1).Potential/dt < 1E-06 V/s	
3.52121499110979	0.0452972412109375	2.09999999469801	22	-0.000203425879590213	dWE(1).Potential/dt < 1E-06 V/s	
3.62121499085731	0.04527587890625	2.19999999444553	23	-0.000213658015127294	dWE(1).Potential/dt < 1E-06 V/s	
3.72121499060484	0.045257568359375	2.29999999419306	24	-0.000157604765263386	dWE(1).Potential/dt < 1E-06 V/s	
3.82121499035236	0.0452362060546875	2.39999999394058	25	-0.000249222153797746	dWE(1).Potential/dt < 1E-06 V/s	
3.92121499009988	0.0452178955078125	2.49999999368811	26	-0.000147558894241229	dWE(1).Potential/dt < 1E-06 V/s	
4.02121498984741	0.0452056884765625	2.59999999343563	27	-8.13107471913099E-05	dWE(1).Potential/dt < 1E-06 V/s	
4.12121498959493	0.0451904296875	2.69999999318316	28	-0.000198359484784305	dWE(1).Potential/dt < 1E-06 V/s	
4.22121498934246	0.0451751708984375	2.79999999293068	29	-0.000142380726174451	dWE(1).Potential/dt < 1E-06 V/s	
4.32121498908998	0.04515380859375	2.8999999926782	30	-0.00026452069869265	dWE(1).Potential/dt < 1E-06 V/s	
4.42121498883751	0.0451385498046875	2.99999999242573	31	-8.13355800346471E-05	dWE(1).Potential/dt < 1E-06 V/s	
4.52121498858503	0.0451202392578125	3.09999999217325	32	-0.000228857214096934	dWE(1).Potential/dt < 1E-06 V/s	
4.62121498833255	0.0451080322265625	3.19999999192078	33	-6.10823990427889E-05	dWE(1).Potential/dt < 1E-06 V/s	
4.72121498808008	0.045098876953125	3.2999999916683	34	-8.63647292135283E-05	dWE(1).Potential/dt < 1E-06 V/s	
4.8212149878276	0.04508056640625	3.39999999141583	35	-0.000269661599304527	dWE(1).Potential/dt < 1E-06 V/s	
4.92121498757513	0.045062255859375	3.49999999116335	36	-0.000152575623360462	dWE(1).Potential/dt < 1E-06 V/s	
5.02121498732265	0.0450408935546875	3.59999999091087	37	-0.000238990018260665	dWE(1).Potential/dt < 1E-06 V/s	
5.12121498707018	0.04501953125	3.6999999906584	38	-0.000203574891202152	dWE(1).Potential/dt < 1E-06 V/s	
5.2212149868177	0.0450103759765625	3.79999999040592	39	1.0244558325212E-05		
5.32121498656522	0.0449920654296875	3.89999999015345	40	-0.000300122104818001	dWE(1).Potential/dt < 1E-06 V/s	
5.42121498631275	0.0449737548828125	3.99999998990097	41	-0.000152612876263447	dWE(1).Potential/dt < 1E-06 V/s	
5.52121498606027	0.0449615478515625	4.0999999896485	42	-7.11406974005513E-05	dWE(1).Potential/dt < 1E-06 V/s	
5.6212149858078	0.0449462890625	4.19999998939602	43	-0.000198359484784305	dWE(1).Potential/dt < 1E-06 V/s	
5.72121498555532	0.0449249267578125	4.29999998914354	44	-0.000254338228842244	dWE(1).Potential/dt < 1E-06 V/s	
5.82121498530284	0.044903564453125	4.39999998889107	45	-0.000193193744053133	dWE(1).Potential/dt < 1E-06 V/s	
5.92121498505037	0.044879150390625	4.49999998863859	46	-0.000269686453975737	dWE(1).Potential/dt < 1E-06 V/s	
6.02121498479789	0.044854736328125	4.59999998838612	47	-0.000233836690313183	dWE(1).Potential/dt < 1E-06 V/s	
6.12121498454542	0.04483642578125	4.69999998813364	48	-0.000132334855152294	dWE(1).Potential/dt < 1E-06 V/s	
6.22121498429294	0.0448211669921875	4.79999998788116	49	-0.000147509214002639	dWE(1).Potential/dt < 1E-06 V/s	
6.32121498404047	0.0447998046875	4.89999998762869	50	-0.000274653488304466	dWE(1).Potential/dt < 1E-06 V/s	
6.42121498378799	0.0447845458984375	4.99999998737621	51	-8.13852529972792E-05	dWE(1).Potential/dt < 1E-06 V/s	
6.52121498353551	0.0447662353515625	5.09999998712374	52	-0.000228857214096934	dWE(1).Potential/dt < 1E-06 V/s	
6.62121498328304	0.0447479248046875	5.19999998687126	53	-0.000172952975844964	dWE(1).Potential/dt < 1E-06 V/s	
6.72121498303056	0.0447357177734375	5.29999998661879	54	-7.11779503035359E-05	dWE(1).Potential/dt < 1E-06 V/s	
6.82121498277809	0.044720458984375	5.39999998636631	55	-0.00019839673768729	dWE(1).Potential/dt < 1E-06 V/s	
6.92121498252561	0.0447021484375	5.49999998611383	56	-0.000198359484784305	dWE(1).Potential/dt < 1E-06 V/s	
7.02121498227314	0.04468994140625	5.59999998586136	57	-6.10078968747985E-05	dWE(1).Potential/dt < 1E-06 V/s	
7.12121498202066	0.0446685791015625	5.69999998560888	58	-0.000310354225803167	dWE(1).Potential/dt < 1E-06 V/s	
7.22121498176818	0.0446533203125	5.79999998535641	59	-7.12027831468731E-05	dWE(1).Potential/dt < 1E-06 V/s	
7.32121498151571	0.0446319580078125	5.89999998510393	60	-0.000284823559923097	dWE(1).Potential/dt < 1E-06 V/s	
7.42121498126323	0.04461669921875	5.99999998485146	61	-8.13852529972792E-05	dWE(1).Potential/dt < 1E-06 V/s	
7.52121498101076	0.0446014404296875	6.09999998459898	62	-0.00017292813572567	dWE(1).Potential/dt < 1E-06 V/s	
7.62121498075828	0.044580078125	6.1999999843465	63	-0.00026444619288668	dWE(1).Potential/dt < 1E-06 V/s	
7.72121498050581	0.0445648193359375	6.29999998409403	64	-8.1360420153942E-05	dWE(1).Potential/dt < 1E-06 V/s	
7.82121498025333	0.0445465087890625	6.39999998384155	65	-0.000228931719902903	dWE(1).Potential/dt < 1E-06 V/s	
7.92121498000085	0.0445343017578125	6.49999998358908	66	-6.09706439718138E-05	dWE(1).Potential/dt < 1E-06 V/s	
8.02121497974838	0.0445220947265625	6.5999999833366	67	-0.000142430406413041	dWE(1).Potential/dt < 1E-06 V/s	
8.1212149794959	0.0445068359375	6.69999998308413	68	-0.000178044210770167	dWE(1).Potential/dt < 1E-06 V/s	
8.22121497924343	0.0444915771484375	6.79999998283165	69	-0.000142430406413041	dWE(1).Potential/dt < 1E-06 V/s	
8.32121497899095	0.0444793701171875	6.89999998257917	70	-9.66713778325357E-05	dWE(1).Potential/dt < 1E-06 V/s	
8.42121497873848	0.0444580078125	6.9999999823267	71	-0.000300022744340822	dWE(1).Potential/dt < 1E-06 V/s	
8.521214978486	0.04444580078125	7.09999998207422	72	-1.52612865349511E-05	dWE(1).Potential/dt < 1E-06 V/s	
8.62121497823352	0.044427490234375	7.19999998182175	73	-0.00026449587312527	dWE(1).Potential/dt < 1E-06 V/s	
8.72121497798105	0.0444091796875	7.29999998156927	74	-0.000162795346113853	dWE(1).Potential/dt < 1E-06 V/s	
8.82121497772857	0.0443939208984375	7.3999999813168	75	-0.000127169114421122	dWE(1).Potential/dt < 1E-06 V/s	
8.9212149774761	0.0443817138671875	7.49999998106432	76	-0.000106766921817325	dWE(1).Potential/dt < 1E-06 V/s	
9.02121497722362	0.0443756103515625	7.59999998081184	77	-2.03897743631387E-05	dWE(1).Potential/dt < 1E-06 V/s	
9.12121497697115	0.0443634033203125	7.69999998055937	78	-0.000193243409739807	dWE(1).Potential/dt < 1E-06 V/s	
9.22121497671867	0.04434814453125	7.79999998030689	79	-0.00015772893675603	dWE(1).Potential/dt < 1E-06 V/s	
9.32121497646619	0.0443389892578125	7.89999998005442	80	-3.04853219859069E-05	dWE(1).Potential/dt < 1E-06 V/s	
9.42121497621372	0.0443359375	7.99999997980194	81	-2.48352929332896E-08	dWE(1).Potential/dt < 1E-06 V/s	
9.52121497596124	0.04432373046875	8.09999997954947	82	-0.000218674744246528	dWE(1).Potential/dt < 1E-06 V/s	
9.62121497570877	0.0443115234375	8.19999997929699	83	-9.16049757506698E-05	dWE(1).Potential/dt < 1E-06 V/s	
9.72121497545629	0.0443023681640625	8.29999997904451	84	-6.61363810650073E-05	dWE(1).Potential/dt < 1E-06 V/s	
9.82121497520382	0.044293212890625	8.39999997879204	85	-0.000101688106951769	dWE(1).Potential/dt < 1E-06 V/s	
9.92121497495134	0.044293212890625	8.49999997853956	86	7.62443451094441E-05		
10.0212149746989	0.044281005859375	8.59999997828709	87	-0.000254338228842244	dWE(1).Potential/dt < 1E-06 V/s	
10.1212149744464	0.0442779541015625	8.69999997803461	88	8.65137408254668E-05		
10.2212149741939	0.0442657470703125	8.79999997778214	89	-0.000228944147238508	dWE(1).Potential/dt < 1E-06 V/s	
10.3212149739414	0.0442596435546875	8.89999997752966	90	2.04146108444547E-05		
10.421214973689	0.0442535400390625	8.99999997727718	91	-8.14225059002638E-05	dWE(1).Potential/dt < 1E-06 V/s	
10.5212149734365	0.04423828125	9.09999997702471	92	-0.000228832388529554	dWE(1).Potential/dt < 1E-06 V/s	
10.621214973184	0.0442291259765625	9.19999997677223	93	-1.01079640444368E-05	dWE(1).Potential/dt < 1E-06 V/s	
10.7212149729315	0.0442169189453125	9.29999997651976	94	-0.000167874153703451	dWE(1).Potential/dt < 1E-06 V/s	
10.8212149726791	0.0442108154296875	9.39999997626728	95	-8.69235208256214E-08	dWE(1).Potential/dt < 1E-06 V/s	
10.9212149724266	0.04420166015625	9.49999997601481	96	-0.000137264665681869	dWE(1).Potential/dt < 1E-06 V/s	
11.0212149721741	0.044195556640625	9.59999997576233	97	-2.55430986726424E-05	dWE(1).Potential/dt < 1E-06 V/s	
11.1212149719216	0.0441864013671875	9.69999997550985	98	-0.000127082195831463	dWE(1).Potential/dt < 1E-06 V/s	
11.2212149716692	0.044183349609375	9.79999997525738	99	3.04853219859069E-05		
11.3212149714167	0.04417724609375	9.8999999750049	100	-0.000106816594779957	dWE(1).Potential/dt < 1E-06 V/s	
11.4212149711642	0.04417724609375	9.99999997475243	101	6.10823990427889E-05		
11.5212149709117	0.0441619873046875	10.0999999745	102	-0.000300084822811186	dWE(1).Potential/dt < 1E-06 V/s	
11.6212149706593	0.0441558837890625	10.1999999742475	103	6.61736339679919E-05		
11.7212149704068	0.044140625	10.299999973995	104	-0.000259466731222346	dWE(1).Potential/dt < 1E-06 V/s	
11.8212149701543	0.044146728515625	10.3999999737425	105	0.000269525015028194		
11.9212149699018	0.0441436767578125	10.49999997349	106	-0.000177932452061214	dWE(1).Potential/dt < 1E-06 V/s	
12.0212149696493	0.044140625	10.5999999732376	107	-1.24176464666448E-08	dWE(1).Potential/dt < 1E-06 V/s	
12.1212149693969	0.0441375732421875	10.6999999729851	108	-3.05349931295495E-05	dWE(1).Potential/dt < 1E-06 V/s	
12.2212149691444	0.0441375732421875	10.7999999727326	109	2.54810092883417E-05		
12.3212149688919	0.044134521484375	10.8999999724801	110	-6.61736339679919E-05	dWE(1).Potential/dt < 1E-06 V/s	
12.4212149686394	0.0441253662109375	10.9999999722277	111	-0.000132198256324045	dWE(1).Potential/dt < 1E-06 V/s	
12.521214968387	0.0441253662109375	11.0999999719752	112	9.6584451966919E-05		
12.6212149681345	0.0441192626953125	11.1999999717227	113	-0.000142480072099715	dWE(1).Potential/dt < 1E-06 V/s	
12.721214967882	0.0441131591796875	11.2999999714702	114	-4.06429571739864E-05	dWE(1).Potential/dt < 1E-06 V/s	
12.8212149676295	0.0441070556640625	11.3999999712178	115	-6.10078968747985E-05	dWE(1).Potential/dt < 1E-06 V/s	
12.9212149673771	0.0441070556640625	11.4999999709653	116	5.08875127707142E-05		
13.0212149671246	0.0441009521484375	11.5999999707128	117	-0.000132272762130015	dWE(1).Potential/dt < 1E-06 V/s	
13.1212149668721	0.04410400390625	11.6999999704603	118	0.000127181527204812		
13.2212149666196	0.04410400390625	11.7999999702079	119	-5.60035841772333E-05	dWE(1).Potential/dt < 1E-06 V/s	
13.3212149663672	0.04410400390625	11.8999999699554	120	1.01452169474214E-05		
13.4212149661147	0.0440948486328125	11.9999999697029	121	-0.000167812075233087	dWE(1).Potential/dt < 1E-06 V/s	
13.5212149658622	0.0440887451171875	12.0999999694504	122	-5.19057630299358E-06	dWE(1).Potential/dt < 1E-06 V/s	
13.6212149656097	0.044085693359375	12.199999969198	123	-1.52240345414612E-05	dWE(1).Potential/dt < 1E-06 V/s	
13.7212149653573	0.0440826416015625	12.2999999689455	124	-4.06429571739864E-05	dWE(1).Potential/dt < 1E-06 V/s	
13.8212149651048	0.04407958984375	12.399999968693	125	-3.05225730699021E-05	dWE(1).Potential/dt < 1E-06 V/s	
13.9212149648523	0.044073486328125	12.4999999684405	126	-8.65634137880988E-05	dWE(1).Potential/dt < 1E-06 V/s	
14.0212149645998	0.044073486328125	12.5999999681881	127	6.10451461398043E-05		
14.1212149643474	0.0440643310546875	12.6999999679356	128	-0.000188164587598294	dWE(1).Potential/dt < 1E-06 V/s	
14.2212149640949	0.044061279296875	12.7999999676831	129	5.0837843446061E-05		
14.3212149638424	0.04405517578125	12.8999999674306	130	-0.000106816594779957	dWE(1).Potential/dt < 1E-06 V/s	
14.4212149635899	0.0440521240234375	12.9999999671782	131	5.15332294526161E-06		
14.5212149633375	0.044049072265625	13.0999999669257	132	-4.07050429203082E-05	dWE(1).Potential/dt < 1E-06 V/s	
14.621214963085	0.0440673828125	13.1999999666732	133	0.000361067883204669		
14.7212149628325	0.0440673828125	13.2999999664207	134	-0.000223765979171731	dWE(1).Potential/dt < 1E-06 V/s	
14.82121496258	0.0440521240234375	13.3999999661683	135	-0.000218711997149512	dWE(1).Potential/dt < 1E-06 V/s	
14.9212149623276	0.04405517578125	13.4999999659158	136	0.000233948449022137		
15.0212149620751	0.044049072265625	13.5999999656633	137	-0.000198284978978336	dWE(1).Potential/dt < 1E-06 V/s	
15.1212149618226	0.0440399169921875	13.6999999654108	138	-8.65758265717886E-05	dWE(1).Potential/dt < 1E-06 V/s	
15.2212149615701	0.044024658203125	13.7999999651583	139	-0.000193206156836823	dWE(1).Potential/dt < 1E-06 V/s	
15.3212149613177	0.0440185546875	13.8999999649059	140	3.56510608980898E-05		
15.4212149610652	0.0440032958984375	13.9999999646534	141	-0.000259466731222346	dWE(1).Potential/dt < 1E-06 V/s	
15.5212149608127	0.0439971923828125	14.0999999644009	142	4.57093556178734E-05		
15.6212149605602	0.0439849853515625	14.1999999641484	143	-0.000203363786567934	dWE(1).Potential/dt < 1E-06 V/s	
15.7212149603077	0.043975830078125	14.299999963896	144	-4.58086979051586E-05	dWE(1).Potential/dt < 1E-06 V/s	
15.8212149600553	0.043963623046875	14.3999999636435	145	-0.000157679271069355	dWE(1).Potential/dt < 1E-06 V/s	
15.9212149598028	0.0439605712890625	14.499999963391	146	5.60035841772333E-05		
16.0212149595503	0.0439483642578125	14.5999999631385	147	-0.000228931719902903	dWE(1).Potential/dt < 1E-06 V/s	
16.1212149592978	0.0439453125	14.6999999628861	148	7.6356103818398E-05		
16.2212149590454	0.04393310546875	14.7999999626336	149	-0.000228931719902903	dWE(1).Potential/dt < 1E-06 V/s	
16.3212149587929	0.0439300537109375	14.8999999623811	150	7.6356103818398E-05		
16.4212149585404	0.0439239501953125	14.9999999621286	151	-0.000116974224511068	dWE(1).Potential/dt < 1E-06 V/s	
16.5212149582879	0.043914794921875	15.0999999618762	152	-0.000106829007563647	dWE(1).Potential/dt < 1E-06 V/s	
16.6212149580355	0.04390869140625	15.1999999616237	153	-2.53816688200459E-05	dWE(1).Potential/dt < 1E-06 V/s	
16.721214957783	0.0438995361328125	15.2999999613712	154	-0.000127181527204812	dWE(1).Potential/dt < 1E-06 V/s	
16.8212149575305	0.043890380859375	15.3999999611187	155	-8.14100858406164E-05	dWE(1).Potential/dt < 1E-06 V/s	
16.921214957278	0.0438934326171875	15.4999999608663	156	0.000132297602249309		
17.0212149570256	0.0438873291015625	15.5999999606138	157	-0.000178069050889462	dWE(1).Potential/dt < 1E-06 V/s	
17.1212149567731	0.04388427734375	15.6999999603613	158	2.55058457696578E-05		
17.2212149565206	0.0438720703125	15.7999999601088	159	-0.000208591620321386	dWE(1).Potential/dt < 1E-06 V/s	
17.3212149562681	0.043853759765625	15.8999999598564	160	-0.000203388626687229	dWE(1).Potential/dt < 1E-06 V/s	
17.4212149560157	0.0438507080078125	15.9999999596039	161	0.000116974224511068		
17.5212149557632	0.0438568115234375	16.0999999593514	162	8.63895620568655E-05		
17.6212149555107	0.043853759765625	16.1999999590989	163	-0.000137239825562574	dWE(1).Potential/dt < 1E-06 V/s	
17.7212149552582	0.0438385009765625	16.2999999588465	164	-0.00022382807219401	dWE(1).Potential/dt < 1E-06 V/s	
17.8212149550058	0.0438201904296875	16.399999958594	165	-0.000167824488016777	dWE(1).Potential/dt < 1E-06 V/s	
17.9212149547533	0.0438018798828125	16.4999999583415	166	-0.000172952975844964	dWE(1).Potential/dt < 1E-06 V/s	
18.0212149545008	0.0437957763671875	16.599999958089	167	4.0680210076971E-05		
18.1212149542483	0.04378662109375	16.6999999578366	168	-0.000157567512360401	dWE(1).Potential/dt < 1E-06 V/s	
18.2212149539959	0.043768310546875	16.7999999575841	169	-0.000249321514274925	dWE(1).Potential/dt < 1E-06 V/s	
18.3212149537434	0.0437530517578125	16.8999999573316	170	-9.66465377132408E-05	dWE(1).Potential/dt < 1E-06 V/s	
18.4212149534909	0.0437408447265625	16.9999999570791	171	-0.000106766921817325	dWE(1).Potential/dt < 1E-06 V/s	
18.5212149532384	0.0437286376953125	17.0999999568267	172	-0.000132247936562635	dWE(1).Potential/dt < 1E-06 V/s	
18.621214952986	0.0437164306640625	17.1999999565742	173	-0.000122115132398903	dWE(1).Potential/dt < 1E-06 V/s	
18.7212149527335	0.043701171875	17.2999999563217	174	-0.000177994545083493	dWE(1).Potential/dt < 1E-06 V/s	
18.821214952481	0.043682861328125	17.3999999560692	175	-0.0001983470574487	dWE(1).Potential/dt < 1E-06 V/s	
18.9212149522285	0.04366455078125	17.4999999558167	176	-0.000172952975844964	dWE(1).Potential/dt < 1E-06 V/s	
19.021214951976	0.0436492919921875	17.5999999555643	177	-0.000127107021398842	dWE(1).Potential/dt < 1E-06 V/s	
19.1212149517236	0.043634033203125	17.6999999553118	178	-0.000162733253091574	dWE(1).Potential/dt < 1E-06 V/s	
19.2212149514711	0.0436248779296875	17.7999999550593	179	-4.07050429203082E-05	dWE(1).Potential/dt < 1E-06 V/s	
19.3212149512186	0.0436126708984375	17.8999999548068	180	-0.000167861740919761	dWE(1).Potential/dt < 1E-06 V/s	
19.4212149509661	0.043597412109375	17.9999999545544	181	-0.000167812075233087	dWE(1).Potential/dt < 1E-06 V/s	
19.5212149507137	0.0435882568359375	18.0999999543019	182	-3.04480690829223E-05	dWE(1).Potential/dt < 1E-06 V/s	
19.6212149504612	0.0435760498046875	18.1999999540494	183	-0.000167874153703451	dWE(1).Potential/dt < 1E-06 V/s	
19.7212149502087	0.043560791015625	18.2999999537969	184	-0.000167874153703451	dWE(1).Potential/dt < 1E-06 V/s	
19.8212149499562	0.043548583984375	18.3999999535445	185	-8.65013207658194E-05	dWE(1).Potential/dt < 1E-06 V/s	
19.9212149497038	0.043536376953125	18.499999953292	186	-0.00013223550922703	dWE(1).Potential/dt < 1E-06 V/s	
20.0212149494513	0.0435302734375	18.5999999530395	187	-1.00955467132735E-05	dWE(1).Potential/dt < 1E-06 V/s	
20.1212149491988	0.0435150146484375	18.699999952787	188	-0.000249296659603715	dWE(1).Potential/dt < 1E-06 V/s	
20.2212149489463	0.043499755859375	18.7999999525346	189	-0.000122077879495919	dWE(1).Potential/dt < 1E-06 V/s	
20.3212149486939	0.0434906005859375	18.8999999522821	190	-4.07422958232928E-05	dWE(1).Potential/dt < 1E-06 V/s	
20.4212149484414	0.0434814453125	18.9999999520296	191	-0.000111771230876911	dWE(1).Potential/dt < 1E-06 V/s	
20.5212149481889	0.04346923828125	19.0999999517771	192	-0.000147534054121934	dWE(1).Potential/dt < 1E-06 V/s	
20.6212149479364	0.0434478759765625	19.1999999515247	193	-0.000279831670923159	dWE(1).Potential/dt < 1E-06 V/s	
20.721214947684	0.04344482421875	19.2999999512722	194	0.000152612876263447		
20.8212149474315	0.0434234619140625	19.3999999510197	195	-0.000427179445978254	dWE(1).Potential/dt < 1E-06 V/s	
20.921214947179	0.043414306640625	19.4999999507672	196	7.11034444975667E-05		
21.0212149469265	0.0433990478515625	19.5999999505148	197	-0.000244068840402178	dWE(1).Potential/dt < 1E-06 V/s	
21.1212149466741	0.043389892578125	19.6999999502623	198	-2.02780156541849E-05	dWE(1).Potential/dt < 1E-06 V/s	
21.2212149464216	0.043377685546875	19.7999999500098	199	-0.000167874153703451	dWE(1).Potential/dt < 1E-06 V/s	
21.3212149461691	0.043365478515625	19.8999999497573	200	-0.000111945082608145	dWE(1).Potential/dt < 1E-06 V/s	
21.4212149459166	0.0433563232421875	19.9999999495049	201	-6.61363810650073E-05	dWE(1).Potential/dt < 1E-06 V/s	
21.5212149456642	0.0433441162109375	20.0999999492524	202	-0.000157617178047076	dWE(1).Potential/dt < 1E-06 V/s	
21.6212149454117	0.0433349609375	20.1999999489999	203	-5.59787476959173E-05	dWE(1).Potential/dt < 1E-06 V/s	
21.7212149451592	0.0433258056640625	20.2999999487474	204	-0.000101750192698091	dWE(1).Potential/dt < 1E-06 V/s	
21.8212149449067	0.0433197021484375	20.399999948495	205	-3.5588975151768E-05	dWE(1).Potential/dt < 1E-06 V/s	
21.9212149446543	0.0433074951171875	20.4999999482425	206	-0.00018313544569537	dWE(1).Potential/dt < 1E-06 V/s	
22.0212149444018	0.04329833984375	20.59999994799	207	-4.56721027148888E-05	dWE(1).Potential/dt < 1E-06 V/s	
22.1212149441493	0.043292236328125	20.6999999477375	208	-4.58459508081432E-05	dWE(1).Potential/dt < 1E-06 V/s	
22.2212149438968	0.043280029296875	20.799999947485	209	-0.000183073352673091	dWE(1).Potential/dt < 1E-06 V/s	
22.3212149436443	0.043280029296875	20.8999999472326	210	0.000122015793749597		
22.4212149433919	0.043267822265625	20.9999999469801	211	-0.000264433765551075	dWE(1).Potential/dt < 1E-06 V/s	
22.5212149431394	0.043255615234375	21.0999999467276	212	-8.13852529972792E-05	dWE(1).Potential/dt < 1E-06 V/s	
22.6212149428869	0.0432464599609375	21.1999999464751	213	-6.61860540276393E-05	dWE(1).Potential/dt < 1E-06 V/s	
22.7212149426344	0.0432373046875	21.2999999462227	214	-0.000101601181086153	dWE(1).Potential/dt < 1E-06 V/s	
22.821214942382	0.0432220458984375	21.3999999459702	215	-0.000203463132493198	dWE(1).Potential/dt < 1E-06 V/s	
22.9212149421295	0.043218994140625	21.4999999457177	216	9.15056371013634E-05		
23.021214941877	0.0432098388671875	21.5999999454652	217	-0.000183060939889401	dWE(1).Potential/dt < 1E-06 V/s	
23.1212149416245	0.0431976318359375	21.6999999452128	218	-0.000127231207443401	dWE(1).Potential/dt < 1E-06 V/s	
23.2212149413721	0.0431884765625	21.7999999449603	219	-5.59539148525801E-05	dWE(1).Potential/dt < 1E-06 V/s	
23.3212149411196	0.04317626953125	21.8999999447078	220	-0.000157617178047076	dWE(1).Potential/dt < 1E-06 V/s	
23.4212149408671	0.043170166015625	21.9999999444553	221	-4.96705858665791E-08	dWE(1).Potential/dt < 1E-06 V/s	
23.5212149406146	0.0431610107421875	22.0999999442029	222	-0.000137214985443279	dWE(1).Potential/dt < 1E-06 V/s	
23.6212149403622	0.0431549072265625	22.1999999439504	223	-2.55058457696578E-05	dWE(1).Potential/dt < 1E-06 V/s	
23.7212149401097	0.04315185546875	22.2999999436979	224	-1.51867816384765E-05	dWE(1).Potential/dt < 1E-06 V/s	
23.8212149398572	0.043145751953125	22.3999999434454	225	-9.6634124929551E-05	dWE(1).Potential/dt < 1E-06 V/s	
23.9212149396047	0.0431396484375	22.499999943193	226	-5.08999328303616E-05	dWE(1).Potential/dt < 1E-06 V/s	
24.0212149393523	0.0431365966796875	22.5999999429405	227	-5.01672911923379E-06	dWE(1).Potential/dt < 1E-06 V/s	
24.1212149390998	0.04312744140625	22.699999942688	228	-0.000152662541950122	dWE(1).Potential/dt < 1E-06 V/s	
24.2212149388473	0.043115234375	22.7999999424355	229	-0.000127094608615153	dWE(1).Potential/dt < 1E-06 V/s	
24.3212149385948	0.0431121826171875	22.8999999421831	230	5.58794090466108E-05		
24.4212149383424	0.043109130859375	22.9999999419306	231	-6.10203132964671E-05	dWE(1).Potential/dt < 1E-06 V/s	
24.5212149380899	0.04310302734375	23.0999999416781	232	-8.6401982116513E-05	dWE(1).Potential/dt < 1E-06 V/s	
24.6212149378374	0.04310302734375	23.1999999414256	233	6.09706439718138E-05		
24.7212149375849	0.043096923828125	23.2999999411732	234	-0.000132310015032999	dWE(1).Potential/dt < 1E-06 V/s	
24.8212149373325	0.0430877685546875	23.3999999409207	235	-9.65720319072716E-05	dWE(1).Potential/dt < 1E-06 V/s	
24.92121493708	0.043084716796875	23.4999999406682	236	3.04853219859069E-05		
25.0212149368275	0.04307861328125	23.5999999404157	237	-0.000106816594779957	dWE(1).Potential/dt < 1E-06 V/s	
25.121214936575	0.0430755615234375	23.6999999401633	238	5.15332294526161E-06		
25.2212149363226	0.0430694580078125	23.7999999399108	239	-9.6634124929551E-05	dWE(1).Potential/dt < 1E-06 V/s	
25.3212149360701	0.043060302734375	23.8999999396583	240	-0.000106829007563647	dWE(1).Potential/dt < 1E-06 V/s	
25.4212149358176	0.0430572509765625	23.9999999394058	241	3.05474095512182E-05		
25.5212149355651	0.043048095703125	24.0999999391533	242	-0.000162845011800528	dWE(1).Potential/dt < 1E-06 V/s	
25.6212149353127	0.0430389404296875	24.1999999389009	243	-7.10786043782718E-05	dWE(1).Potential/dt < 1E-06 V/s	
25.7212149350602	0.0430328369140625	24.2999999386484	244	-3.56758973794058E-05	dWE(1).Potential/dt < 1E-06 V/s	
25.8212149348077	0.0430267333984375	24.3999999383959	245	-7.11158572812565E-05	dWE(1).Potential/dt < 1E-06 V/s	
25.9212149345552	0.0430206298828125	24.4999999381434	246	-6.11693249084055E-05	dWE(1).Potential/dt < 1E-06 V/s	
26.0212149343027	0.0430145263671875	24.599999937891	247	-6.09830603934824E-05	dWE(1).Potential/dt < 1E-06 V/s	
26.1212149340503	0.043011474609375	24.6999999376385	248	-5.07881713929237E-06	dWE(1).Potential/dt < 1E-06 V/s	
26.2212149337978	0.0430023193359375	24.799999937386	249	-0.000152662541950122	dWE(1).Potential/dt < 1E-06 V/s	
26.3212149335453	0.0430023193359375	24.8999999371335	250	9.67086307355203E-05		
26.4212149332928	0.0429901123046875	24.9999999368811	251	-0.000254325801506639	dWE(1).Potential/dt < 1E-06 V/s	
26.5212149330404	0.0429901123046875	25.0999999366286	252	0.000142368313390762		
26.6212149327879	0.042987060546875	25.1999999363761	253	-9.66465377132408E-05	dWE(1).Potential/dt < 1E-06 V/s	
26.7212149325354	0.0429840087890625	25.2999999361236	254	-2.02904338948429E-05	dWE(1).Potential/dt < 1E-06 V/s	
26.8212149322829	0.0429779052734375	25.3999999358712	255	-8.6451655079145E-05	dWE(1).Potential/dt < 1E-06 V/s	
26.9212149320305	0.042974853515625	25.4999999356187	256	5.02914690514444E-06		
27.021214931778	0.04296875	25.5999999353662	257	-9.66092848102562E-05	dWE(1).Potential/dt < 1E-06 V/s	
27.1212149315255	0.0429656982421875	25.6999999351137	258	5.09123492520303E-06		
27.221214931273	0.0429595947265625	25.7999999348613	259	-9.67334635788575E-05	dWE(1).Potential/dt < 1E-06 V/s	
27.3212149310206	0.04295654296875	25.8999999346088	260	5.11607004227699E-06		
27.4212149307681	0.042950439453125	25.9999999343563	261	-9.65720319072716E-05	dWE(1).Potential/dt < 1E-06 V/s	
27.5212149305156	0.0429412841796875	26.0999999341038	262	-0.000106915933429264	dWE(1).Potential/dt < 1E-06 V/s	
27.6212149302631	0.0429351806640625	26.1999999338514	263	-2.53195812547347E-05	dWE(1).Potential/dt < 1E-06 V/s	
27.7212149300107	0.042926025390625	26.2999999335989	264	-0.000127268460346386	dWE(1).Potential/dt < 1E-06 V/s	
27.8212149297582	0.0429229736328125	26.3999999333464	265	3.06094989355188E-05		
27.9212149295057	0.0429168701171875	26.4999999330939	266	-0.00010680417472031	dWE(1).Potential/dt < 1E-06 V/s	
28.0212149292532	0.042926025390625	26.5999999328415	267	0.000228844801313244		
28.1212149290008	0.042919921875	26.699999932589	268	-0.00023896517814137	dWE(1).Potential/dt < 1E-06 V/s	
28.2212149287483	0.0429168701171875	26.7999999323365	269	4.5721772039542E-05		
28.3212149284958	0.042913818359375	26.899999932084	270	-4.07174629799556E-05	dWE(1).Potential/dt < 1E-06 V/s	
28.4212149282433	0.04290771484375	26.9999999318316	271	-8.64392350194976E-05	dWE(1).Potential/dt < 1E-06 V/s	
28.5212149279909	0.0429107666015625	27.0999999315791	272	0.000116949391667731		
28.6212149277384	0.042901611328125	27.1999999313266	273	-0.000223691473365761	dWE(1).Potential/dt < 1E-06 V/s	
28.7212149274859	0.0428924560546875	27.2999999310741	274	-5.09123492520303E-05	dWE(1).Potential/dt < 1E-06 V/s	
28.8212149272334	0.0428802490234375	27.3999999308217	275	-0.000147509214002639	dWE(1).Potential/dt < 1E-06 V/s	
28.921214926981	0.0428741455078125	27.4999999305692	276	7.45058770235119E-08	dWE(1).Potential/dt < 1E-06 V/s	
29.0212149267285	0.0428619384765625	27.5999999303167	277	-0.000193367581232451	dWE(1).Potential/dt < 1E-06 V/s	
29.121214926476	0.042852783203125	27.6999999300642	278	-4.57838614238426E-05	dWE(1).Potential/dt < 1E-06 V/s	
29.2212149262235	0.0428436279296875	27.7999999298117	279	-0.000101688106951769	dWE(1).Potential/dt < 1E-06 V/s	
29.321214925971	0.042840576171875	27.8999999295593	280	2.03152685571695E-05		
29.4212149257186	0.042840576171875	27.9999999293068	281	5.1409056140983E-06		
29.5212149254661	0.0428314208984375	28.0999999290543	282	-0.000178031797986478	dWE(1).Potential/dt < 1E-06 V/s	
29.6212149252136	0.042828369140625	28.1999999288018	283	5.08875127707142E-05		
29.7212149249611	0.0428192138671875	28.2999999285494	284	-0.000162845011800528	dWE(1).Potential/dt < 1E-06 V/s	
29.8212149247087	0.0428131103515625	28.3999999282969	285	-1.51495287354919E-05	dWE(1).Potential/dt < 1E-06 V/s	
29.9212149244562	0.042803955078125	28.4999999280444	286	-0.000127268460346386	dWE(1).Potential/dt < 1E-06 V/s	
30.0212149242037	0.0428009033203125	28.5999999277919	287	3.06094989355188E-05		
30.1212149239512	0.0427978515625	28.6999999275395	288	-5.08750963490456E-05	dWE(1).Potential/dt < 1E-06 V/s	
30.2212149236988	0.0427886962890625	28.799999927287	289	-0.000142492484883405	dWE(1).Potential/dt < 1E-06 V/s	
30.3212149234463	0.042779541015625	28.8999999270345	290	-7.10786043782718E-05	dWE(1).Potential/dt < 1E-06 V/s	
30.4212149231938	0.0427703857421875	28.999999926782	291	-9.16049757506698E-05	dWE(1).Potential/dt < 1E-06 V/s	
30.5212149229413	0.042767333984375	29.0999999265296	292	2.03773579414701E-05		
30.6212149226889	0.0427581787109375	29.1999999262771	293	-0.000162845011800528	dWE(1).Potential/dt < 1E-06 V/s	
30.7212149224364	0.0427581787109375	29.2999999260246	294	9.67086307355203E-05		
30.8212149221839	0.042755126953125	29.3999999257721	295	-8.64392350194976E-05	dWE(1).Potential/dt < 1E-06 V/s	
30.9212149219314	0.0427520751953125	29.4999999255197	296	-2.03525214601541E-05	dWE(1).Potential/dt < 1E-06 V/s	
31.021214921679	0.0427459716796875	29.5999999252672	297	-8.65634137880988E-05	dWE(1).Potential/dt < 1E-06 V/s	
31.1212149214265	0.0427337646484375	29.6999999250147	298	-0.000162671160069294	dWE(1).Potential/dt < 1E-06 V/s	
31.221214921174	0.04273681640625	29.7999999247622	299	0.000178006957867183		
31.3212149209215	0.0427337646484375	29.8999999245098	300	-0.000132247936562635	dWE(1).Potential/dt < 1E-06 V/s	
31.4212149206691	0.0427276611328125	29.9999999242573	301	-6.61363810650073E-05	dWE(1).Potential/dt < 1E-06 V/s	
31.5212149204166	0.042718505859375	30.0999999240048	302	-0.000106704836071003	dWE(1).Potential/dt < 1E-06 V/s	
31.6212149201641	0.04271240234375	30.1999999237523	303	-2.55058457696578E-05	dWE(1).Potential/dt < 1E-06 V/s	
31.7212149199116	0.0427093505859375	30.2999999234999	304	-1.51867816384765E-05	dWE(1).Potential/dt < 1E-06 V/s	
31.8212149196592	0.0426971435546875	30.3999999232474	305	-0.000208591620321386	dWE(1).Potential/dt < 1E-06 V/s	
31.9212149194067	0.0426910400390625	30.4999999229949	306	2.04270272661233E-05		
32.0212149191542	0.04268798828125	30.5999999227424	307	-2.54810092883417E-05	dWE(1).Potential/dt < 1E-06 V/s	
32.1212149189017	0.04267578125	30.69999992249	308	-0.000208504701731727	dWE(1).Potential/dt < 1E-06 V/s	
32.2212149186493	0.042669677734375	30.7999999222375	309	2.02531809918582E-05		
32.3212149183968	0.042657470703125	30.899999921985	310	-0.000193193744053133	dWE(1).Potential/dt < 1E-06 V/s	
32.4212149181443	0.0426544189453125	30.9999999217325	311	6.60494624753483E-05		
32.5212149178918	0.0426483154296875	31.09999992148	312	-0.000116949391667731	dWE(1).Potential/dt < 1E-06 V/s	
32.6212149176393	0.0426422119140625	31.1999999212276	313	-5.0837843446061E-05	dWE(1).Potential/dt < 1E-06 V/s	
32.7212149173869	0.0426361083984375	31.2999999209751	314	-6.10699862590991E-05	dWE(1).Potential/dt < 1E-06 V/s	
32.8212149171344	0.042633056640625	31.3999999207226	315	-5.01672911923379E-06	dWE(1).Potential/dt < 1E-06 V/s	
32.9212149168819	0.042633056640625	31.4999999204701	316	1.52240345414612E-05		
33.0212149166294	0.042626953125	31.5999999202177	317	-0.000122028206533287	dWE(1).Potential/dt < 1E-06 V/s	
33.121214916377	0.042620849609375	31.6999999199652	318	-4.07298794016242E-05	dWE(1).Potential/dt < 1E-06 V/s	
33.2212149161245	0.04261474609375	31.7999999197127	319	-6.09458074904978E-05	dWE(1).Potential/dt < 1E-06 V/s	
33.321214915872	0.042608642578125	31.8999999194602	320	-6.11693249084055E-05	dWE(1).Potential/dt < 1E-06 V/s	
33.4212149156195	0.0426055908203125	31.9999999192078	321	-5.05398202221841E-06	dWE(1).Potential/dt < 1E-06 V/s	
33.5212149153671	0.0425994873046875	32.0999999189553	322	-9.65720319072716E-05	dWE(1).Potential/dt < 1E-06 V/s	
33.6212149151146	0.0425872802734375	32.1999999187028	323	-0.000162845011800528	dWE(1).Potential/dt < 1E-06 V/s	
33.7212149148621	0.0425811767578125	32.2999999184503	324	1.0244558325212E-05		
33.8212149146096	0.042572021484375	32.3999999181979	325	-0.000137351584271528	dWE(1).Potential/dt < 1E-06 V/s	
33.9212149143572	0.04256591796875	32.4999999179454	326	-2.53816688200459E-05	dWE(1).Potential/dt < 1E-06 V/s	
34.0212149141047	0.042559814453125	32.5999999176929	327	-7.12524561095051E-05	dWE(1).Potential/dt < 1E-06 V/s	
34.1212149138522	0.0425506591796875	32.6999999174404	328	-0.000116874885861762	dWE(1).Potential/dt < 1E-06 V/s	
34.2212149135997	0.042547607421875	32.799999917188	329	3.04232326016063E-05		
34.3212149133473	0.0425384521484375	32.8999999169355	330	-0.000162708412972279	dWE(1).Potential/dt < 1E-06 V/s	
34.4212149130948	0.0425323486328125	32.999999916683	331	-1.53730452439049E-05	dWE(1).Potential/dt < 1E-06 V/s	
34.5212149128423	0.0425201416015625	33.0999999164305	332	-0.000183011274202727	dWE(1).Potential/dt < 1E-06 V/s	
34.6212149125898	0.0425140380859375	33.1999999161781	333	1.01203813756001E-05		
34.7212149123374	0.0425048828125	33.2999999159256	334	-0.000137214985443279	dWE(1).Potential/dt < 1E-06 V/s	
34.8212149120849	0.0424957275390625	33.3999999156731	335	-8.14349259599112E-05	dWE(1).Potential/dt < 1E-06 V/s	
34.9212149118324	0.042486572265625	33.4999999154206	336	-9.15801429073326E-05	dWE(1).Potential/dt < 1E-06 V/s	
35.0212149115799	0.0424774169921875	33.5999999151682	337	-9.15180498850532E-05	dWE(1).Potential/dt < 1E-06 V/s	
35.1212149113275	0.04246826171875	33.6999999149157	338	-9.16422286536545E-05	dWE(1).Potential/dt < 1E-06 V/s	
35.221214911075	0.0424560546875	33.7999999146632	339	-0.000147447135532275	dWE(1).Potential/dt < 1E-06 V/s	
35.3212149108225	0.042449951171875	33.8999999144107	340	-1.24176464666448E-08	dWE(1).Potential/dt < 1E-06 V/s	
35.42121491057	0.0424407958984375	33.9999999141583	341	-0.000137376424390823	dWE(1).Potential/dt < 1E-06 V/s	
35.5212149103176	0.042431640625	34.0999999139058	342	-8.13355800346471E-05	dWE(1).Potential/dt < 1E-06 V/s	
35.6212149100651	0.0424285888671875	34.1999999136533	343	2.03152685571695E-05		
35.7212149098126	0.042437744140625	34.2999999134008	344	0.00017292813572567		
35.8212149095601	0.042437744140625	34.3999999131483	345	-0.000116936971608084	dWE(1).Potential/dt < 1E-06 V/s	
35.9212149093077	0.0424224853515625	34.4999999128959	346	-0.000249222153797746	dWE(1).Potential/dt < 1E-06 V/s	
36.0212149090552	0.0424072265625	34.5999999126434	347	-0.000101712939795107	dWE(1).Potential/dt < 1E-06 V/s	
36.1212149088027	0.0423980712890625	34.6999999123909	348	-4.06181206926703E-05	dWE(1).Potential/dt < 1E-06 V/s	
36.2212149085502	0.0423858642578125	34.7999999121384	349	-0.000167874153703451	dWE(1).Potential/dt < 1E-06 V/s	
36.3212149082977	0.0423736572265625	34.899999911886	350	-0.000111945082608145	dWE(1).Potential/dt < 1E-06 V/s	
36.4212149080453	0.0423675537109375	34.9999999116335	351	-1.01079640444368E-05	dWE(1).Potential/dt < 1E-06 V/s	
36.5212149077928	0.0423583984375	35.099999911381	352	-0.000137351584271528	dWE(1).Potential/dt < 1E-06 V/s	
36.6212149075403	0.0423492431640625	35.1999999111285	353	-8.14100858406164E-05	dWE(1).Potential/dt < 1E-06 V/s	
36.7212149072878	0.0423431396484375	35.2999999108761	354	-3.5588975151768E-05	dWE(1).Potential/dt < 1E-06 V/s	
36.8212149070354	0.042364501953125	35.3999999106236	355	0.000432283093687147		
36.9212149067829	0.04237060546875	35.4999999103711	356	-0.000157629605382681	dWE(1).Potential/dt < 1E-06 V/s	
37.0212149065304	0.04237060546875	35.5999999101186	357	-4.96705858665791E-08	dWE(1).Potential/dt < 1E-06 V/s	
37.1212149062779	0.0423583984375	35.6999999098662	358	-0.000203475545276888	dWE(1).Potential/dt < 1E-06 V/s	
37.2212149060255	0.0423431396484375	35.7999999096137	359	-0.000137301918584853	dWE(1).Potential/dt < 1E-06 V/s	
37.321214905773	0.0423309326171875	35.8999999093612	360	-8.64889079821296E-05	dWE(1).Potential/dt < 1E-06 V/s	
37.4212149055205	0.042327880859375	35.9999999091087	361	3.56634809577372E-05		
37.521214905268	0.0423187255859375	36.0999999088563	362	-0.000173002641531639	dWE(1).Potential/dt < 1E-06 V/s	
37.6212149050156	0.0423126220703125	36.1999999086038	363	-1.52364518726245E-05	dWE(1).Potential/dt < 1E-06 V/s	
37.7212149047631	0.042315673828125	36.2999999083513	364	9.66092848102562E-05		
37.8212149045106	0.0423126220703125	36.3999999080988	365	-0.000111833323899191	dWE(1).Potential/dt < 1E-06 V/s	
37.9212149042581	0.04229736328125	36.4999999078464	366	-0.000233998129260726	dWE(1).Potential/dt < 1E-06 V/s	
38.0212149040057	0.042291259765625	36.5999999075939	367	5.59911677555647E-05		
38.1212149037532	0.042279052734375	36.6999999073414	368	-0.000203450719709508	dWE(1).Potential/dt < 1E-06 V/s	
38.2212149035007	0.04227294921875	36.7999999070889	369	1.00831284726155E-05		
38.3212149032482	0.0422698974609375	36.8999999068365	370	-2.54065034823725E-05	dWE(1).Potential/dt < 1E-06 V/s	
38.4212149029958	0.042266845703125	36.999999906584	371	-4.06429571739864E-05	dWE(1).Potential/dt < 1E-06 V/s	
38.5212149027433	0.042254638671875	37.0999999063315	372	-0.00019840915047098	dWE(1).Potential/dt < 1E-06 V/s	
38.6212149024908	0.0422454833984375	37.199999906079	373	-3.55020492861513E-05	dWE(1).Potential/dt < 1E-06 V/s	
38.7212149022383	0.042236328125	37.2999999058266	374	-0.000101775025541428	dWE(1).Potential/dt < 1E-06 V/s	
38.8212149019859	0.042230224609375	37.3999999055741	375	-3.55517222487833E-05	dWE(1).Potential/dt < 1E-06 V/s	
38.9212149017334	0.0422210693359375	37.4999999053216	376	-0.000127181527204812	dWE(1).Potential/dt < 1E-06 V/s	
39.0212149014809	0.042218017578125	37.5999999050691	377	3.05474095512182E-05		
39.1212149012284	0.0422119140625	37.6999999048167	378	-0.000106915933429264	dWE(1).Potential/dt < 1E-06 V/s	
39.221214900976	0.0422027587890625	37.7999999045642	379	-0.000106742088973988	dWE(1).Potential/dt < 1E-06 V/s	
39.3212149007235	0.0422027587890625	37.8999999043117	380	8.64144021761604E-05		
39.421214900471	0.04219970703125	37.9999999040592	381	-8.6451655079145E-05	dWE(1).Potential/dt < 1E-06 V/s	
39.5212149002185	0.0421905517578125	38.0999999038067	382	-0.00013223550922703	dWE(1).Potential/dt < 1E-06 V/s	
39.621214899966	0.0421844482421875	38.1999999035543	383	-1.52116163008031E-05	dWE(1).Potential/dt < 1E-06 V/s	
39.7212148997136	0.042181396484375	38.2999999033018	384	-1.53233759192517E-05	dWE(1).Potential/dt < 1E-06 V/s	
39.8212148994611	0.04217529296875	38.3999999030493	385	-9.66092848102562E-05	dWE(1).Potential/dt < 1E-06 V/s	
39.9212148992086	0.0421661376953125	38.4999999027968	386	-0.000106866260466632	dWE(1).Potential/dt < 1E-06 V/s	
40.0212148989561	0.0421661376953125	38.5999999025444	387	8.6451655079145E-05		
40.1212148987037	0.0421600341796875	38.6999999022919	388	-0.000142405566293746	dWE(1).Potential/dt < 1E-06 V/s	
40.2212148984512	0.042156982421875	38.7999999020394	389	1.52737047756091E-05		
40.3212148981987	0.0421539306640625	38.8999999017869	390	-4.07050429203082E-05	dWE(1).Potential/dt < 1E-06 V/s	
40.4212148979462	0.04215087890625	38.9999999015345	391	-3.05474095512182E-05	dWE(1).Potential/dt < 1E-06 V/s	
40.5212148976938	0.042144775390625	39.099999901282	392	-8.64392350194976E-05	dWE(1).Potential/dt < 1E-06 V/s	
40.6212148974413	0.042138671875	39.1999999010295	393	-5.0837843446061E-05	dWE(1).Potential/dt < 1E-06 V/s	
40.7212148971888	0.042138671875	39.299999900777	394	5.08875127707142E-05		
40.8212148969363	0.042138671875	39.3999999005246	395	-2.03152685571695E-05	dWE(1).Potential/dt < 1E-06 V/s	
40.9212148966839	0.042132568359375	39.4999999002721	396	-0.000111932662548497	dWE(1).Potential/dt < 1E-06 V/s	
41.0212148964314	0.0421295166015625	39.5999999000196	397	1.53233759192517E-05		
41.1212148961789	0.04212646484375	39.6999998997671	398	-4.07050429203082E-05	dWE(1).Potential/dt < 1E-06 V/s	
41.2212148959264	0.0421234130859375	39.7999998995147	399	-3.05349931295495E-05	dWE(1).Potential/dt < 1E-06 V/s	
41.321214895674	0.0421173095703125	39.8999998992622	400	-8.64764879224822E-05	dWE(1).Potential/dt < 1E-06 V/s	
41.4212148954215	0.0421173095703125	39.9999998990097	401	6.10823990427889E-05		
41.521214895169	0.0421142578125	40.0999998987572	402	-7.62691852287389E-05	dWE(1).Potential/dt < 1E-06 V/s	
41.6212148949165	0.0421112060546875	40.1999998985048	403	-2.03525214601541E-05	dWE(1).Potential/dt < 1E-06 V/s	
41.7212148946641	0.0421112060546875	40.2999998982523	404	2.53940870607039E-05		
41.8212148944116	0.042108154296875	40.3999998979998	405	-6.61115482216701E-05	dWE(1).Potential/dt < 1E-06 V/s	
41.9212148941591	0.04210205078125	40.4999998977473	406	-7.63064381317236E-05	dWE(1).Potential/dt < 1E-06 V/s	
42.0212148939066	0.0420989990234375	40.5999998974949	407	5.15332294526161E-06		
42.1212148936542	0.042095947265625	40.6999998972424	408	-4.07050429203082E-05	dWE(1).Potential/dt < 1E-06 V/s	
42.2212148934017	0.042095947265625	40.7999998969899	409	2.53940870607039E-05		
42.3212148931492	0.0420928955078125	40.8999998967374	410	-6.61115482216701E-05	dWE(1).Potential/dt < 1E-06 V/s	
42.4212148928967	0.0420928955078125	40.999999896485	411	3.56510608980898E-05		
42.5212148926443	0.04208984375	41.0999998962325	412	-6.61736339679919E-05	dWE(1).Potential/dt < 1E-06 V/s	
42.6212148923918	0.0420867919921875	41.19999989598	413	-2.03401050384855E-05	dWE(1).Potential/dt < 1E-06 V/s	
42.7212148921393	0.0420867919921875	41.2999998957275	414	2.54561746260151E-05		
42.8212148918868	0.042083740234375	41.399999895475	415	-6.60867153783329E-05	dWE(1).Potential/dt < 1E-06 V/s	
42.9212148916343	0.042083740234375	41.4999998952226	416	3.55765550921205E-05		
43.0212148913819	0.042083740234375	41.5999998949701	417	-1.01700525192427E-05	dWE(1).Potential/dt < 1E-06 V/s	
43.1212148911294	0.042083740234375	41.6999998947176	418	0	dWE(1).Potential/dt < 1E-06 V/s	
43.2212148908769	0.0420806884765625	41.7999998944651	419	-5.5929078371264E-05	dWE(1).Potential/dt < 1E-06 V/s	
43.3212148906244	0.0420806884765625	41.8999998942127	420	3.55641386704519E-05		
43.421214890372	0.04207763671875	41.9999998939602	421	-6.61115482216701E-05	dWE(1).Potential/dt < 1E-06 V/s	
43.5212148901195	0.0420745849609375	42.0999998937077	422	-2.03773579414701E-05	dWE(1).Potential/dt < 1E-06 V/s	
43.621214889867	0.0420745849609375	42.1999998934552	423	2.54189217230305E-05		
43.7212148896145	0.0420684814453125	42.2999998932028	424	-0.000122065459436271	dWE(1).Potential/dt < 1E-06 V/s	
43.8212148893621	0.0420684814453125	42.3999998929503	425	7.12027831468731E-05		
43.9212148891096	0.0420654296875	42.4999998926978	426	-7.62691852287389E-05	dWE(1).Potential/dt < 1E-06 V/s	
44.0212148888571	0.0420654296875	42.5999998924453	427	3.55641386704519E-05		
44.1212148886046	0.0420623779296875	42.6999998921929	428	-6.61115482216701E-05	dWE(1).Potential/dt < 1E-06 V/s	
44.2212148883522	0.0420654296875	42.7999998919404	429	9.15801429073326E-05		
44.3212148880997	0.0420623779296875	42.8999998916879	430	-0.000101737772638444	dWE(1).Potential/dt < 1E-06 V/s	
44.4212148878472	0.0420623779296875	42.9999998914354	431	4.58211143268272E-05		
44.5212148875947	0.0420623779296875	43.099999891183	432	-1.01452169474214E-05	dWE(1).Potential/dt < 1E-06 V/s	
44.6212148873423	0.0420562744140625	43.1999998909305	433	-0.000111932662548497	dWE(1).Potential/dt < 1E-06 V/s	
44.7212148870898	0.042059326171875	43.299999890678	434	0.000127181527204812		
44.8212148868373	0.0420623779296875	43.3999998904255	435	2.48352929332896E-08	dWE(1).Potential/dt < 1E-06 V/s	
44.9212148865848	0.0420623779296875	43.4999998901731	436	-2.54189217230305E-05	dWE(1).Potential/dt < 1E-06 V/s	
45.0212148863324	0.0420623779296875	43.5999998899206	437	1.02073054222274E-05		
45.1212148860799	0.0420684814453125	43.6999998896681	438	0.000111882989585865		
45.2212148858274	0.0420654296875	43.7999998894156	439	-0.000127131861518137	dWE(1).Potential/dt < 1E-06 V/s	
45.3212148855749	0.0420654296875	43.8999998891632	440	5.5904241889948E-05		
45.4212148853225	0.0420654296875	43.9999998889107	441	-1.01824698504061E-05	dWE(1).Potential/dt < 1E-06 V/s	
45.52121488507	0.0420623779296875	44.0999998886582	442	-5.59414947929326E-05	dWE(1).Potential/dt < 1E-06 V/s	
45.6212148848175	0.042059326171875	44.1999998884057	443	-2.03773579414701E-05	dWE(1).Potential/dt < 1E-06 V/s	
45.721214884565	0.0420623779296875	44.2999998881533	444	8.1447338743601E-05		
45.8212148843126	0.042059326171875	44.3999998879008	445	-0.000101799865660723	dWE(1).Potential/dt < 1E-06 V/s	
45.9212148840601	0.0420623779296875	44.4999998876483	446	0.000101799865660723		
46.0212148838076	0.0420654296875	44.5999998873958	447	1.01576342785847E-05		
46.1212148835551	0.0420654296875	44.6999998871433	448	-2.54561746260151E-05	dWE(1).Potential/dt < 1E-06 V/s	
46.2212148833027	0.0420654296875	44.7999998868909	449	1.01576342785847E-05		
46.3212148830502	0.0420654296875	44.8999998866384	450	-1.24176464666448E-08	dWE(1).Potential/dt < 1E-06 V/s	
46.4212148827977	0.0420623779296875	44.9999998863859	451	-5.59414947929326E-05	dWE(1).Potential/dt < 1E-06 V/s	
46.5212148825452	0.0420623779296875	45.0999998861334	452	3.56510608980898E-05		
46.6212148822927	0.0420654296875	45.199999885881	453	4.57838614238426E-05		
46.7212148820403	0.0420684814453125	45.2999998856285	454	2.02904338948429E-05		
46.8212148817878	0.042071533203125	45.399999885376	455	3.05225730699021E-05		
46.9212148815353	0.0420654296875	45.4999998851235	456	-0.000137252238346264	dWE(1).Potential/dt < 1E-06 V/s	
47.0212148812828	0.0420745849609375	45.5999998848711	457	0.000249097967753187		
47.1212148810304	0.042083740234375	45.6999998846186	458	4.07422958232928E-05		
47.2212148807779	0.0420928955078125	45.7999998843661	459	9.15801429073326E-05		
47.3212148805254	0.04210205078125	45.8999998841136	460	9.15180498850532E-05		
47.4212148802729	0.042108154296875	45.9999998838612	461	3.57131502823904E-05		
47.5212148800205	0.0421173095703125	46.0999998836087	462	0.000127082195831463		
47.621214879768	0.04212646484375	46.1999998833562	463	8.14721788628958E-05		
47.7212148795155	0.0421295166015625	46.2999998831037	464	-2.04394455067813E-05	dWE(1).Potential/dt < 1E-06 V/s	
47.821214879263	0.0421356201171875	46.3999998828513	465	0.00010680417472031		
47.9212148790106	0.0421356201171875	46.4999998825988	466	-6.10575661994517E-05	dWE(1).Potential/dt < 1E-06 V/s	
48.0212148787581	0.042138671875	46.5999998823463	467	7.63436910347082E-05		
48.1212148785056	0.042132568359375	46.6999998820938	468	-0.000147546466905624	dWE(1).Potential/dt < 1E-06 V/s	
48.2212148782531	0.0421356201171875	46.7999998818414	469	0.000137363997055218		
48.3212148780007	0.042132568359375	46.8999998815889	470	-0.000111932662548497	dWE(1).Potential/dt < 1E-06 V/s	
48.4212148777482	0.0421295166015625	46.9999998813364	471	-1.01203813756001E-05	dWE(1).Potential/dt < 1E-06 V/s	
48.5212148774957	0.04212646484375	47.0999998810839	472	-3.05225730699021E-05	dWE(1).Potential/dt < 1E-06 V/s	
48.6212148772432	0.04212646484375	47.1999998808315	473	2.53940870607039E-05		
48.7212148769908	0.042120361328125	47.299999880579	474	-0.000122139972518198	dWE(1).Potential/dt < 1E-06 V/s	
48.8212148767383	0.0421173095703125	47.3999998803265	475	1.52861230162671E-05		
48.9212148764858	0.0421142578125	47.499999880074	476	-4.06429571739864E-05	dWE(1).Potential/dt < 1E-06 V/s	
49.0212148762333	0.0421142578125	47.5999998798216	477	2.54065034823725E-05		
49.1212148759809	0.0421142578125	47.6999998795691	478	-1.01700525192427E-05	dWE(1).Potential/dt < 1E-06 V/s	
49.2212148757284	0.0421112060546875	47.7999998793166	479	-5.5929078371264E-05	dWE(1).Potential/dt < 1E-06 V/s	
49.3212148754759	0.0421112060546875	47.8999998790641	480	3.55641386704519E-05		
49.4212148752234	0.0421173095703125	47.9999998788116	481	0.000101675686892122		
49.521214874971	0.0421142578125	48.0999998785592	482	-0.000127069768495858	dWE(1).Potential/dt < 1E-06 V/s	
49.6212148747185	0.0421112060546875	48.1999998783067	483	-1.24176464666448E-08	dWE(1).Potential/dt < 1E-06 V/s	
49.721214874466	0.042108154296875	48.2999998780542	484	-3.05349931295495E-05	dWE(1).Potential/dt < 1E-06 V/s	
49.8212148742135	0.0421051025390625	48.3999998778017	485	-3.05474095512182E-05	dWE(1).Potential/dt < 1E-06 V/s	
49.921214873961	0.04210205078125	48.4999998775493	486	-3.05101566482335E-05	dWE(1).Potential/dt < 1E-06 V/s	
50.0212148737086	0.04210205078125	48.5999998772968	487	2.54561746260151E-05		
50.1212148734561	0.0420989990234375	48.6999998770443	488	-6.60867153783329E-05	dWE(1).Potential/dt < 1E-06 V/s	
50.2212148732036	0.0420989990234375	48.7999998767918	489	3.55765550921205E-05		
50.3212148729511	0.042095947265625	48.8999998765394	490	-6.60991281620227E-05	dWE(1).Potential/dt < 1E-06 V/s	
50.4212148726987	0.042095947265625	48.9999998762869	491	3.55641386704519E-05		
50.5212148724462	0.042095947265625	49.0999998760344	492	-1.01824698504061E-05	dWE(1).Potential/dt < 1E-06 V/s	
50.6212148721937	0.0420928955078125	49.1999998757819	493	-5.59414947929326E-05	dWE(1).Potential/dt < 1E-06 V/s	
50.7212148719412	0.042095947265625	49.2999998755295	494	9.15801429073326E-05		
50.8212148716888	0.0420928955078125	49.399999875277	495	-0.000101737772638444	dWE(1).Potential/dt < 1E-06 V/s	
50.9212148714363	0.0420928955078125	49.4999998750245	496	4.58211143268272E-05		
51.0212148711838	0.04208984375	49.599999874772	497	-6.61736339679919E-05	dWE(1).Potential/dt < 1E-06 V/s	
51.1212148709313	0.04208984375	49.6999998745196	498	3.5588975151768E-05		
51.2212148706789	0.0420867919921875	49.7999998742671	499	-6.61363810650073E-05	dWE(1).Potential/dt < 1E-06 V/s	
51.3212148704264	0.042083740234375	49.8999998740146	500	-2.02904338948429E-05	dWE(1).Potential/dt < 1E-06 V/s	
51.4212148701739	0.0420867919921875	49.9999998737621	501	8.13355800346471E-05		
51.5212148699214	0.0420867919921875	50.0999998735097	502	-4.57341920991894E-05	dWE(1).Potential/dt < 1E-06 V/s	
51.621214869669	0.042083740234375	50.1999998732572	503	-4.5746608520858E-05	dWE(1).Potential/dt < 1E-06 V/s	
51.7212148694165	0.0420806884765625	50.2999998730047	504	-2.03525214601541E-05	dWE(1).Potential/dt < 1E-06 V/s	
51.821214869164	0.0420806884765625	50.3999998727522	505	2.53940870607039E-05		
51.9212148689115	0.0420745849609375	50.4999998724998	506	-0.000122139972518198	dWE(1).Potential/dt < 1E-06 V/s	
52.0212148686591	0.042071533203125	50.5999998722473	507	1.52861230162671E-05		
52.1212148684066	0.042071533203125	50.6999998719948	508	1.52861230162671E-05		
52.2212148681541	0.0420684814453125	50.7999998717423	509	-6.60867153783329E-05	dWE(1).Potential/dt < 1E-06 V/s	
52.3212148679016	0.0420684814453125	50.8999998714899	510	3.55765550921205E-05		
52.4212148676492	0.0420684814453125	50.9999998712374	511	-1.01700525192427E-05	dWE(1).Potential/dt < 1E-06 V/s	
52.5212148673967	0.0420654296875	51.0999998709849	512	-5.5929078371264E-05	dWE(1).Potential/dt < 1E-06 V/s	
52.6212148671442	0.0420654296875	51.1999998707324	513	3.55641386704519E-05		
52.7212148668917	0.0420623779296875	51.29999987048	514	-6.61115482216701E-05	dWE(1).Potential/dt < 1E-06 V/s	
52.8212148666393	0.0420562744140625	51.3999998702275	515	-7.63064381317236E-05	dWE(1).Potential/dt < 1E-06 V/s	
52.9212148663868	0.0420562744140625	51.499999869975	516	6.10823990427889E-05		
53.0212148661343	0.0420562744140625	51.5999998697225	517	-2.03401050384855E-05	dWE(1).Potential/dt < 1E-06 V/s	
53.1212148658818	0.0420654296875	51.69999986947	518	0.000167898993822746		
53.2212148656293	0.0420684814453125	51.7999998692176	519	-5.09496021550149E-05	dWE(1).Potential/dt < 1E-06 V/s	
53.3212148653769	0.0420654296875	51.8999998689651	520	-6.09830603934824E-05	dWE(1).Potential/dt < 1E-06 V/s	
53.4212148651244	0.042059326171875	51.9999998687126	521	-6.62233069306239E-05	dWE(1).Potential/dt < 1E-06 V/s	
53.5212148648719	0.042059326171875	52.0999998684601	522	6.10451461398043E-05		
53.6212148646194	0.0420623779296875	52.1999998682077	523	3.56510608980898E-05		
53.721214864367	0.042059326171875	52.2999998679552	524	-9.16173958103172E-05	dWE(1).Potential/dt < 1E-06 V/s	
53.8212148641145	0.0420562744140625	52.3999998677027	525	-1.01576342785847E-05	dWE(1).Potential/dt < 1E-06 V/s	
53.921214863862	0.04205322265625	52.4999998674502	526	-3.04729037452489E-05	dWE(1).Potential/dt < 1E-06 V/s	
54.0212148636095	0.04205322265625	52.5999998671978	527	2.54065034823725E-05		
54.1212148633571	0.0420501708984375	52.6999998669453	528	-6.60991281620227E-05	dWE(1).Potential/dt < 1E-06 V/s	
54.2212148631046	0.0420501708984375	52.7999998666928	529	3.55641386704519E-05		
54.3212148628521	0.0420440673828125	52.8999998664403	530	-0.000122139972518198	dWE(1).Potential/dt < 1E-06 V/s	
54.4212148625996	0.0420379638671875	52.9999998661879	531	-4.06429571739864E-05	dWE(1).Potential/dt < 1E-06 V/s	
54.5212148623472	0.0420318603515625	53.0999998659354	532	-6.10078968747985E-05	dWE(1).Potential/dt < 1E-06 V/s	
54.6212148620947	0.042034912109375	53.1999998656829	533	0.000106816594779957		
54.7212148618422	0.04202880859375	53.2999998654304	534	-0.000167936246725731	dWE(1).Potential/dt < 1E-06 V/s	
54.8212148615897	0.0420257568359375	53.399999865178	535	2.54561746260151E-05		
54.9212148613373	0.042022705078125	53.4999998649255	536	-4.06429571739864E-05	dWE(1).Potential/dt < 1E-06 V/s	
55.0212148610848	0.0420196533203125	53.599999864673	537	-3.05225730699021E-05	dWE(1).Potential/dt < 1E-06 V/s	
55.1212148608323	0.0420196533203125	53.6999998644205	538	2.53940870607039E-05		
55.2212148605798	0.0420166015625	53.7999998641681	539	-6.61115482216701E-05	dWE(1).Potential/dt < 1E-06 V/s	
55.3212148603274	0.0420166015625	53.8999998639156	540	3.56510608980898E-05		
55.4212148600749	0.0420135498046875	53.9999998636631	541	-6.61736339679919E-05	dWE(1).Potential/dt < 1E-06 V/s	
55.5212148598224	0.0420074462890625	54.0999998634106	542	-7.62691852287389E-05	dWE(1).Potential/dt < 1E-06 V/s	
55.6212148595699	0.042010498046875	54.1999998631582	543	0.000116949391667731		
55.7212148593175	0.0420074462890625	54.2999998629057	544	-0.000111833323899191	dWE(1).Potential/dt < 1E-06 V/s	
55.821214859065	0.0420074462890625	54.3999998626532	545	4.5746608520858E-05		
55.9212148588125	0.04200439453125	54.4999998624007	546	-6.60991281620227E-05	dWE(1).Potential/dt < 1E-06 V/s	
56.02121485856	0.041998291015625	54.5999998621483	547	-7.63933567213826E-05	dWE(1).Potential/dt < 1E-06 V/s	
56.1212148583076	0.0420013427734375	54.6999998618958	548	0.000117073570436332		
56.2212148580551	0.0419952392578125	54.7999998616433	549	-0.000167898993822746	dWE(1).Potential/dt < 1E-06 V/s	
56.3212148578026	0.0419952392578125	54.8999998613908	550	8.14349259599112E-05		
56.4212148575501	0.0419891357421875	54.9999998611383	551	-0.000132198256324045	dWE(1).Potential/dt < 1E-06 V/s	
56.5212148572977	0.0419891357421875	55.0999998608859	552	7.11406974005513E-05		
56.6212148570452	0.041986083984375	55.1999998606334	553	-7.62815980124287E-05	dWE(1).Potential/dt < 1E-06 V/s	
56.7212148567927	0.0419830322265625	55.2999998603809	554	-2.03773579414701E-05	dWE(1).Potential/dt < 1E-06 V/s	
56.8212148565402	0.04197998046875	55.3999998601284	555	-3.05101566482335E-05	dWE(1).Potential/dt < 1E-06 V/s	
56.9212148562877	0.0419769287109375	55.499999859876	556	-3.04729037452489E-05	dWE(1).Potential/dt < 1E-06 V/s	
57.0212148560353	0.041973876953125	55.5999998596235	557	-3.05225730699021E-05	dWE(1).Potential/dt < 1E-06 V/s	
57.1212148557828	0.0419708251953125	55.699999859371	558	-3.05349931295495E-05	dWE(1).Potential/dt < 1E-06 V/s	
57.2212148555303	0.0419708251953125	55.7999998591185	559	2.54810092883417E-05		
57.3212148552778	0.041961669921875	55.8999998588661	560	-0.000178031797986478	dWE(1).Potential/dt < 1E-06 V/s	
57.4212148550254	0.041961669921875	55.9999998586136	561	0.000106816594779957		
57.5212148547729	0.04195556640625	56.0999998583611	562	-0.000142380726174451	dWE(1).Potential/dt < 1E-06 V/s	
57.6212148545204	0.0419525146484375	56.1999998581086	563	1.51991989696398E-05		
57.7212148542679	0.041949462890625	56.2999998578562	564	-4.0680210076971E-05	dWE(1).Potential/dt < 1E-06 V/s	
57.8212148540155	0.041949462890625	56.3999998576037	565	2.54561746260151E-05		
57.921214853763	0.0419403076171875	56.4999998573512	566	-0.000177944864844903	dWE(1).Potential/dt < 1E-06 V/s	
58.0212148535105	0.0419342041015625	56.5999998570987	567	-5.15332294526161E-06	dWE(1).Potential/dt < 1E-06 V/s	
58.121214853258	0.0419281005859375	56.6999998568463	568	-7.11158572812565E-05	dWE(1).Potential/dt < 1E-06 V/s	
58.2212148530056	0.041925048828125	56.7999998565938	569	-5.1409056140983E-06	dWE(1).Potential/dt < 1E-06 V/s	
58.3212148527531	0.0419158935546875	56.8999998563413	570	-0.000152575623360462	dWE(1).Potential/dt < 1E-06 V/s	
58.4212148525006	0.0419158935546875	56.9999998560888	571	9.66465377132408E-05		
58.5212148522481	0.041912841796875	57.0999998558364	572	-8.6451655079145E-05	dWE(1).Potential/dt < 1E-06 V/s	
58.6212148519957	0.0419097900390625	57.1999998555839	573	-2.03649397008121E-05	dWE(1).Potential/dt < 1E-06 V/s	
58.7212148517432	0.0419097900390625	57.2999998553314	574	2.54810092883417E-05		
58.8212148514907	0.04190673828125	57.3999998550789	575	-6.61736339679919E-05	dWE(1).Potential/dt < 1E-06 V/s	
58.9212148512382	0.0418975830078125	57.4999998548265	576	-0.000132198256324045	dWE(1).Potential/dt < 1E-06 V/s	
59.0212148509858	0.04189453125	57.599999854574	577	4.0655373595655E-05		
59.1212148507333	0.041888427734375	57.6999998543215	578	-0.000106816594779957	dWE(1).Potential/dt < 1E-06 V/s	
59.2212148504808	0.0418792724609375	57.799999854069	579	-0.000106704836071003	dWE(1).Potential/dt < 1E-06 V/s	
59.3212148502283	0.0418701171875	57.8999998538166	580	-8.14349259599112E-05	dWE(1).Potential/dt < 1E-06 V/s	
59.4212148499759	0.0418701171875	57.9999998535641	581	7.63064381317236E-05		
59.5212148497234	0.0418609619140625	58.0999998533116	582	-0.00019840915047098	dWE(1).Potential/dt < 1E-06 V/s	
59.6212148494709	0.0418548583984375	58.1999998530591	583	-5.06639980812906E-06	dWE(1).Potential/dt < 1E-06 V/s	
59.7212148492184	0.041851806640625	58.2999998528066	584	-1.52488692037878E-05	dWE(1).Potential/dt < 1E-06 V/s	
59.821214848966	0.041845703125	58.3999998525542	585	-9.67334635788575E-05	dWE(1).Potential/dt < 1E-06 V/s	
59.9212148487135	0.041839599609375	58.4999998523017	586	-5.0813006964745E-05	dWE(1).Potential/dt < 1E-06 V/s	
60.021214848461	0.04183349609375	58.5999998520492	587	-6.10078968747985E-05	dWE(1).Potential/dt < 1E-06 V/s	
60.1212148482085	0.0418304443359375	58.6999998517967	588	-5.1409056140983E-06	dWE(1).Potential/dt < 1E-06 V/s	
60.221214847956	0.0418212890625	58.7999998515443	589	-0.000152538370457478	dWE(1).Potential/dt < 1E-06 V/s	
60.3212148477036	0.0418212890625	58.8999998512918	590	9.6584451966919E-05		
60.4212148474511	0.0418121337890625	58.9999998510393	591	-0.00019840915047098	dWE(1).Potential/dt < 1E-06 V/s	
60.5212148471986	0.041802978515625	59.0999998507868	592	-6.09085545875132E-05	dWE(1).Potential/dt < 1E-06 V/s	
60.6212148469461	0.0417938232421875	59.1999998505344	593	-9.16049757506698E-05	dWE(1).Potential/dt < 1E-06 V/s	
60.7212148466937	0.0417877197265625	59.2999998502819	594	-3.55517222487833E-05	dWE(1).Potential/dt < 1E-06 V/s	
60.8212148464412	0.041778564453125	59.3999998500294	595	-0.000127181527204812	dWE(1).Potential/dt < 1E-06 V/s	
60.9212148461887	0.0417724609375	59.4999998497769	596	-2.53816688200459E-05	dWE(1).Potential/dt < 1E-06 V/s	
61.0212148459362	0.0417633056640625	59.5999998495245	597	-0.000127181527204812	dWE(1).Potential/dt < 1E-06 V/s	
61.1212148456838	0.041754150390625	59.699999849272	598	-8.14100858406164E-05	dWE(1).Potential/dt < 1E-06 V/s	
61.2212148454313	0.041748046875	59.7999998490195	599	-3.5588975151768E-05	dWE(1).Potential/dt < 1E-06 V/s	
61.3212148451788	0.0417388916015625	59.899999848767	600	-0.000127206367324106	dWE(1).Potential/dt < 1E-06 V/s	
